time(s), Phieff(Wb), Thetaeff(rad), Phipl(Wb), DelTheta(rad), Phiext(Wb), Thetaext(rad)
3.00000, 0.00033169761, 0.034002986, 2.51878e-05, 3.5286706, 0.00035402826, 0.551194
3.00100, 0.00033177311, 0.033955615, 2.51141e-05, 3.5295665, 0.00035402826, 0.551194
3.00200, 0.00033180511, 0.033428323, 2.50023e-05, 3.5240042, 0.00035402826, 0.551194
3.00300, 0.00033205909, 0.033028234, 2.47162e-05, 3.5241687, 0.00035402826, 0.551194
3.00400, 0.00033236097, 0.032465704, 2.43616e-05, 3.5232489, 0.00035402826, 0.551194
3.00500, 0.00033258510, 0.031530440, 2.40181e-05, 3.5162389, 0.00035402826, 0.551194
3.00600, 0.00033301330, 0.030492380, 2.34785e-05, 3.5116570, 0.00035402826, 0.551194
3.00700, 0.00033342865, 0.029476434, 2.29540e-05, 3.5068381, 0.00035402826, 0.551194
3.00800, 0.00033382362, 0.028171416, 2.24055e-05, 3.4975350, 0.00035402826, 0.551194
3.00900, 0.00033426514, 0.027008999, 2.18381e-05, 3.4906123, 0.00035402826, 0.551194
3.01000, 0.00033464257, 0.025522439, 2.12834e-05, 3.4773762, 0.00035402826, 0.551194
3.01100, 0.00033508213, 0.023843994, 2.06494e-05, 3.4617198, 0.00035402826, 0.551194
3.01200, 0.00033551199, 0.022237368, 2.00396e-05, 3.4459245, 0.00035402826, 0.551194
3.01300, 0.00033590900, 0.020426625, 1.94404e-05, 3.4251773, 0.00035402826, 0.551194
3.01400, 0.00033624190, 0.018676631, 1.89177e-05, 3.4028375, 0.00035402826, 0.551194
3.01500, 0.00033665585, 0.017020151, 1.83393e-05, 3.3822296, 0.00035402826, 0.551194
3.01600, 0.00033689881, 0.015355800, 1.79317e-05, 3.3571394, 0.00035402826, 0.551194
3.01700, 0.00033721690, 0.013628314, 1.74581e-05, 3.3307798, 0.00035402826, 0.551194
3.01800, 0.00033757810, 0.012044894, 1.69693e-05, 3.3065083, 0.00035402826, 0.551194
3.01900, 0.00033780893, 0.010288769, 1.66053e-05, 3.2754119, 0.00035402826, 0.551194
3.02000, 0.00033817590, 0.0089902412, 1.61550e-05, 3.2538889, 0.00035402826, 0.551194
3.02100, 0.00033850540, 0.0075090784, 1.57389e-05, 3.2266367, 0.00035402826, 0.551194
3.02200, 0.00033875977, 0.0059802085, 1.54079e-05, 3.1961377, 0.00035402826, 0.551194
3.02300, 0.00033911848, 0.0049071708, 1.50061e-05, 3.1754081, 0.00035402826, 0.551194
3.02400, 0.00033935008, 0.0036376154, 1.47322e-05, 3.1483286, 0.00035402826, 0.551194
3.02500, 0.00033970760, 0.0025371844, 1.43473e-05, 3.1241653, 0.00035402826, 0.551194
3.02600, 0.00034005230, 0.0015440810, 1.39863e-05, 3.1021459, 0.00035402826, 0.551194
3.02700, 0.00034029303, 0.00059801998, 1.37369e-05, 3.0797441, 0.00035402826, 0.551194
3.02800, 0.00034061643, 0.00048828125, 1.34123e-05, 3.0562985, 0.00035402826, 0.551194
3.02900, 0.00034091416, 0.00097656250, 1.31188e-05, 3.0382168, 0.00035402826, 0.551194
3.03000, 0.00034117456, 0.0019834081, 1.28723e-05, 3.0116961, 0.00035402826, 0.551194
3.03100, 0.00034144592, 0.0026966222, 1.26173e-05, 2.9913442, 0.00035402826, 0.551194
3.03200, 0.00034177423, 0.0032754918, 1.23071e-05, 2.9732001, 0.00035402826, 0.551194
3.03300, 0.00034194109, 0.0042846538, 1.21783e-05, 2.9441774, 0.00035402826, 0.551194
3.03400, 0.00034225882, 0.0047340668, 1.18845e-05, 2.9275577, 0.00035402826, 0.551194
3.03500, 0.00034249021, 0.0054700645, 1.16936e-05, 2.9038842, 0.00035402826, 0.551194
3.03600, 0.00034276587, 0.0061376099, 1.14635e-05, 2.8799222, 0.00035402826, 0.551194
3.03700, 0.00034305857, 0.0065691643, 1.12059e-05, 2.8620393, 0.00035402826, 0.551194
3.03800, 0.00034327429, 0.0069911378, 1.10263e-05, 2.8452232, 0.00035402826, 0.551194
3.03900, 0.00034351659, 0.0074613001, 1.08290e-05, 2.8254864, 0.00035402826, 0.551194
3.04000, 0.00034380910, 0.0076272152, 1.05605e-05, 2.8133161, 0.00035402826, 0.551194
3.04100, 0.00034396376, 0.0079186121, 1.04373e-05, 2.8003252, 0.00035402826, 0.551194
3.04200, 0.00034425867, 0.0080158683, 1.01625e-05, 2.7894704, 0.00035402826, 0.551194
3.04300, 0.00034451447, 0.0080898860, 9.92478e-06, 2.7796972, 0.00035402826, 0.551194
3.04400, 0.00034470321, 0.0082936212, 9.76447e-06, 2.7674444, 0.00035402826, 0.551194
3.04500, 0.00034496760, 0.0080158683, 9.48404e-06, 2.7685258, 0.00035402826, 0.551194
3.04600, 0.00034523025, 0.0079186121, 9.22311e-06, 2.7636097, 0.00035402826, 0.551194
3.04700, 0.00034543540, 0.0079636471, 9.03350e-06, 2.7548049, 0.00035402826, 0.551194
3.04800, 0.00034571018, 0.0077281403, 8.74723e-06, 2.7537716, 0.00035402826, 0.551194
3.04900, 0.00034593072, 0.0077281403, 8.53771e-06, 2.7458074, 0.00035402826, 0.551194
3.05000, 0.00034613032, 0.0077819424, 8.35513e-06, 2.7359979, 0.00035402826, 0.551194
3.05100, 0.00034643313, 0.0076894797, 8.05836e-06, 2.7275770, 0.00035402826, 0.551194
3.05200, 0.00034660249, 0.0076584108, 7.89506e-06, 2.7217510, 0.00035402826, 0.551194
3.05300, 0.00034686473, 0.0075644385, 7.63806e-06, 2.7138822, 0.00035402826, 0.551194
3.05400, 0.00034711487, 0.0074372957, 7.38755e-06, 2.7079351, 0.00035402826, 0.551194
3.05500, 0.00034727429, 0.0074613001, 7.24217e-06, 2.6989038, 0.00035402826, 0.551194
3.05600, 0.00034752030, 0.0072752428, 6.99043e-06, 2.6943848, 0.00035402826, 0.551194
3.05700, 0.00034773676, 0.0069483779, 6.74770e-06, 2.6981061, 0.00035402826, 0.551194
3.05800, 0.00034792503, 0.0070336377, 6.58334e-06, 2.6837003, 0.00035402826, 0.551194
3.05900, 0.00034809723, 0.0066592805, 6.37417e-06, 2.6927025, 0.00035402826, 0.551194
3.06000, 0.00034830607, 0.0063570500, 6.14193e-06, 2.6957939, 0.00035402826, 0.551194
3.06100, 0.00034847274, 0.0063288589, 5.98344e-06, 2.6871288, 0.00035402826, 0.551194
3.06200, 0.00034867108, 0.0059301639, 5.74742e-06, 2.6967952, 0.00035402826, 0.551194
3.06300, 0.00034884588, 0.0057151932, 5.55821e-06, 2.6974714, 0.00035402826, 0.551194
3.06400, 0.00034898468, 0.0054482277, 5.39417e-06, 2.7046578, 0.00035402826, 0.551194
3.06500, 0.00034921177, 0.0052702781, 5.15964e-06, 2.7003267, 0.00035402826, 0.551194
3.06600, 0.00034926303, 0.0051905066, 5.10330e-06, 2.7010224, 0.00035402826, 0.551194
3.06700, 0.00034945400, 0.0051327683, 4.91846e-06, 2.6906965, 0.00035402826, 0.551194
3.06800, 0.00034961625, 0.0047340668, 4.71764e-06, 2.7049091, 0.00035402826, 0.551194
3.06900, 0.00034975712, 0.0048460579, 4.59895e-06, 2.6870363, 0.00035402826, 0.551194
3.07000, 0.00034998574, 0.0045281379, 4.34569e-06, 2.6909893, 0.00035402826, 0.551194
3.07100, 0.00035013721, 0.0043261861, 4.17809e-06, 2.6937926, 0.00035402826, 0.551194
3.07200, 0.00035032809, 0.0042567407, 3.99444e-06, 2.6803534, 0.00035402826, 0.551194
3.07300, 0.00035049013, 0.0039062523, 3.79525e-06, 2.6962082, 0.00035402826, 0.551194
3.07400, 0.00035063859, 0.0036376154, 3.62541e-06, 2.7036808, 0.00035402826, 0.551194
3.07500, 0.00035079039, 0.0034526715, 3.45728e-06, 2.7080076, 0.00035402826, 0.551194
3.07600, 0.00035098676, 0.0031265267, 3.23634e-06, 2.7172711, 0.00035402826, 0.551194
3.07700, 0.00035107773, 0.0030297067, 3.13622e-06, 2.7201402, 0.00035402826, 0.551194
3.07800, 0.00035124641, 0.0028049632, 2.95022e-06, 2.7263868, 0.00035402826, 0.551194
3.07900, 0.00035143327, 0.0025837421, 2.75075e-06, 2.7276285, 0.00035402826, 0.551194
3.08000, 0.00035154971, 0.0024657000, 2.62681e-06, 2.7281201, 0.00035402826, 0.551194
3.08100, 0.00035172590, 0.0023417152, 2.44331e-06, 2.7243040, 0.00035402826, 0.551194
3.08200, 0.00035190108, 0.0021283689, 2.25594e-06, 2.7260454, 0.00035402826, 0.551194
3.08300, 0.00035196150, 0.0022640675, 2.21324e-06, 2.6997259, 0.00035402826, 0.551194
3.08400, 0.00035214870, 0.0020132356, 2.00860e-06, 2.7050784, 0.00035402826, 0.551194
3.08500, 0.00035226744, 0.0019834081, 1.89223e-06, 2.6905711, 0.00035402826, 0.551194
3.08600, 0.00035235680, 0.0019834081, 1.80975e-06, 2.6719844, 0.00035402826, 0.551194
3.08700, 0.00035254124, 0.0017605233, 1.61242e-06, 2.6683614, 0.00035402826, 0.551194
3.08800, 0.00035263586, 0.0017605233, 1.52845e-06, 2.6402342, 0.00035402826, 0.551194
3.08900, 0.00035274104, 0.0016558425, 1.41412e-06, 2.6384266, 0.00035402826, 0.551194
3.09000, 0.00035292018, 0.0014648439, 1.21910e-06, 2.6351059, 0.00035402826, 0.551194
3.09100, 0.00035294873, 0.0014648439, 1.19583e-06, 2.6205170, 0.00035402826, 0.551194
3.09200, 0.00035312463, 0.0011451211, 9.97828e-07, 2.6270659, 0.00035402826, 0.551194
3.09300, 0.00035322685, 0.00097656250, 8.80013e-07, 2.6391170, 0.00035402826, 0.551194
3.09400, 0.00035334032, 0.00091349060, 7.52566e-07, 2.6474631, 0.00035402826, 0.551194
3.09500, 0.00035346641, 0.00048828125, 5.89605e-07, 2.7566946, 0.00035402826, 0.551194
3.09600, 0.00035359950, 0.00048828125, 4.58390e-07, 2.7031782, 0.00035402826, 0.551194
3.09700, 0.00035370568, 0.00048828125, 3.61261e-07, 2.5977352, 0.00035402826, 0.551194
3.09800, 0.00035383881, 0.0000000, 2.00898e-07, 2.7254560, 0.00035402826, 0.551194
3.09900, 0.00035396307, 0.0000000, 6.86583e-08, 2.7452600, 0.00035402826, 0.551194
3.10000, 0.00035402826, -0.0000000, 0.00000, -2.1991150, 0.00035402826, 0.551194
3.10100, 0.00035420623, -0.0000000, 1.83518e-07, -0.32368674, 0.00035402826, 0.551194
3.10200, 0.00035423219, -0.0000000, 2.24328e-07, -0.50706794, 0.00035402826, 0.551194
3.10300, 0.00035438250, -0.0000000, 3.65732e-07, -0.32868034, 0.00035402826, 0.551194
3.10400, 0.00035454062, -0.00048828125, 5.28628e-07, -0.32605984, 0.00035402826, 0.551194
3.10500, 0.00035457680, -0.00048828125, 5.69051e-07, -0.34663494, 0.00035402826, 0.551194
3.10600, 0.00035475333, -0.00059801998, 7.50637e-07, -0.33917664, 0.00035402826, 0.551194
3.10700, 0.00035487048, -0.00059801998, 8.66583e-07, -0.31511284, 0.00035402826, 0.551194
3.10800, 0.00035490824, -0.00048828125, 8.99388e-07, -0.28549964, 0.00035402826, 0.551194
3.10900, 0.00035509705, -0.00059801998, 1.09683e-06, -0.30409174, 0.00035402826, 0.551194
3.11000, 0.00035515213, -0.00077204045, 1.15321e-06, -0.30357344, 0.00035402826, 0.551194
3.11100, 0.00035526112, -0.00077204045, 1.26251e-06, -0.29465844, 0.00035402826, 0.551194
3.11200, 0.00035540408, -0.0010918301, 1.42755e-06, -0.34770584, 0.00035402826, 0.551194
3.11300, 0.00035544584, -0.0010918301, 1.46886e-06, -0.34269864, 0.00035402826, 0.551194
3.11400, 0.00035559297, -0.0010918301, 1.61340e-06, -0.32397934, 0.00035402826, 0.551194
3.11500, 0.00035572107, -0.0010918301, 1.73635e-06, -0.30208104, 0.00035402826, 0.551194
3.11600, 0.00035574266, -0.0010918301, 1.75913e-06, -0.30368344, 0.00035402826, 0.551194
3.11700, 0.00035585612, -0.0011451211, 1.87512e-06, -0.30270974, 0.00035402826, 0.551194
3.11800, 0.00035600322, -0.0011451211, 2.01936e-06, -0.28780234, 0.00035402826, 0.551194
3.11900, 0.00035603442, -0.00091349060, 2.03333e-06, -0.24125734, 0.00035402826, 0.551194
3.12000, 0.00035611921, -0.0010918301, 2.12795e-06, -0.26443664, 0.00035402826, 0.551194
3.12100, 0.00035621989, -0.0011451211, 2.23121e-06, -0.26634554, 0.00035402826, 0.551194
3.12200, 0.00035626508, -0.00097656250, 2.26457e-06, -0.23435084, 0.00035402826, 0.551194
3.12300, 0.00035640091, -0.0011451211, 2.41018e-06, -0.25444144, 0.00035402826, 0.551194
3.12400, 0.00035649310, -0.0010918301, 2.49711e-06, -0.23863994, 0.00035402826, 0.551194
3.12500, 0.00035653001, -0.0011451211, 2.53683e-06, -0.24421504, 0.00035402826, 0.551194
3.12600, 0.00035671259, -0.0012448779, 2.72192e-06, -0.24415164, 0.00035402826, 0.551194
3.12700, 0.00035671450, -0.0014648439, 2.73617e-06, -0.26918764, 0.00035402826, 0.551194
3.12800, 0.00035685276, -0.0015440810, 2.87511e-06, -0.26578574, 0.00035402826, 0.551194
3.12900, 0.00035694955, -0.0017263351, 2.98599e-06, -0.28655714, 0.00035402826, 0.551194
3.13000, 0.00035697928, -0.0014648439, 2.99610e-06, -0.25155714, 0.00035402826, 0.551194
3.13100, 0.00035708677, -0.0017605233, 3.12125e-06, -0.27885074, 0.00035402826, 0.551194
3.13200, 0.00035722545, -0.0018593199, 3.26506e-06, -0.28230634, 0.00035402826, 0.551194
3.13300, 0.00035728367, -0.0017263351, 3.31046e-06, -0.26059414, 0.00035402826, 0.551194
3.13400, 0.00035739657, -0.0017605233, 3.42472e-06, -0.25974674, 0.00035402826, 0.551194
3.13500, 0.00035742742, -0.0018593199, 3.46439e-06, -0.27243594, 0.00035402826, 0.551194
3.13600, 0.00035749267, -0.0021561920, 3.54910e-06, -0.29711014, 0.00035402826, 0.551194
3.13700, 0.00035759921, -0.0026067093, 3.69132e-06, -0.33452664, 0.00035402826, 0.551194
3.13800, 0.00035762276, -0.0032204373, 3.77154e-06, -0.38635244, 0.00035402826, 0.551194
3.13900, 0.00035767599, -0.0038291984, 3.89447e-06, -0.43692364, 0.00035402826, 0.551194
3.14000, 0.00035775144, -0.0046322467, 4.07208e-06, -0.49642554, 0.00035402826, 0.551194
3.14100, 0.00035775905, -0.0052134232, 4.16748e-06, -0.54162564, 0.00035402826, 0.551194
3.14200, 0.00035780228, -0.0060888589, 4.35353e-06, -0.60205694, 0.00035402826, 0.551194
3.14300, 0.00035786909, -0.0069740652, 4.57376e-06, -0.65459044, 0.00035402826, 0.551194
3.14400, 0.00035788963, -0.0075880410, 4.71286e-06, -0.69149454, 0.00035402826, 0.551194
3.14500, 0.00035799496, -0.0085484348, 4.99952e-06, -0.73580754, 0.00035402826, 0.551194
3.14600, 0.00035799434, -0.0095496494, 5.22390e-06, -0.79059914, 0.00035402826, 0.551194
3.14700, 0.00035809990, -0.010483891, 5.52550e-06, -0.82473534, 0.00035402826, 0.551194
3.14800, 0.00035818915, -0.011399102, 5.81196e-06, -0.85569734, 0.00035402826, 0.551194
3.14900, 0.00035824750, -0.012133642, 6.04047e-06, -0.88071634, 0.00035402826, 0.551194
3.15000, 0.00035829788, -0.012891084, 6.27088e-06, -0.90544714, 0.00035402826, 0.551194
3.15100, 0.00035843691, -0.013918269, 6.63468e-06, -0.92809714, 0.00035402826, 0.551194
3.15200, 0.00035850701, -0.014632283, 6.87141e-06, -0.94530934, 0.00035402826, 0.551194
3.15300, 0.00035881910, -0.015990915, 7.44579e-06, -0.95697554, 0.00035402826, 0.551194
3.15400, 0.00035913860, -0.017180497, 7.97684e-06, -0.96119934, 0.00035402826, 0.551194
3.15500, 0.00035942310, -0.018168643, 8.43210e-06, -0.96280344, 0.00035402826, 0.551194
3.15600, 0.00035980155, -0.019491846, 9.03983e-06, -0.96496284, 0.00035402826, 0.551194
3.15700, 0.00036017932, -0.020583605, 9.58396e-06, -0.96140384, 0.00035402826, 0.551194
3.15800, 0.00036042953, -0.021705613, 1.00548e-05, -0.96869294, 0.00035402826, 0.551194
3.15900, 0.00036075095, -0.023071477, 1.06379e-05, -0.97543604, 0.00035402826, 0.551194
3.16000, 0.00036098030, -0.023958718, 1.10308e-05, -0.97809744, 0.00035402826, 0.551194
3.16100, 0.00036120572, -0.024775796, 1.14024e-05, -0.97950264, 0.00035402826, 0.551194
3.16200, 0.00036147311, -0.025659872, 1.18186e-05, -0.97935964, 0.00035402826, 0.551194
3.16300, 0.00036168288, -0.026236501, 1.21125e-05, -0.97702824, 0.00035402826, 0.551194
3.16400, 0.00036195059, -0.026613234, 1.23903e-05, -0.96758754, 0.00035402826, 0.551194
3.16500, 0.00036224614, -0.026745062, 1.26197e-05, -0.95221264, 0.00035402826, 0.551194
3.16600, 0.00036235479, -0.027000168, 1.27608e-05, -0.95060984, 0.00035402826, 0.551194
3.16700, 0.00036260906, -0.027176222, 1.29782e-05, -0.93921354, 0.00035402826, 0.551194
3.16800, 0.00036281152, -0.027628710, 1.32354e-05, -0.93617334, 0.00035402826, 0.551194
3.16900, 0.00036294601, -0.027916335, 1.34042e-05, -0.93407864, 0.00035402826, 0.551194
3.17000, 0.00036316564, -0.028035661, 1.35843e-05, -0.92425394, 0.00035402826, 0.551194
3.17100, 0.00036323713, -0.028306521, 1.37049e-05, -0.92533924, 0.00035402826, 0.551194
3.17200, 0.00036338192, -0.028274914, 1.37958e-05, -0.91710144, 0.00035402826, 0.551194
3.17300, 0.00036349576, -0.028788891, 1.40099e-05, -0.92039834, 0.00035402826, 0.551194
3.17400, 0.00036362990, -0.028986996, 1.41550e-05, -0.91703694, 0.00035402826, 0.551194
3.17500, 0.00036372308, -0.029322330, 1.43070e-05, -0.91814874, 0.00035402826, 0.551194
3.17600, 0.00036391406, -0.029752215, 1.45524e-05, -0.91605854, 0.00035402826, 0.551194
3.17700, 0.00036399849, -0.030053245, 1.46897e-05, -0.91703084, 0.00035402826, 0.551194
3.17800, 0.00036416062, -0.030231243, 1.48484e-05, -0.91211934, 0.00035402826, 0.551194
3.17900, 0.00036429328, -0.030737730, 1.50733e-05, -0.91426244, 0.00035402826, 0.551194
3.18000, 0.00036428950, -0.030867398, 1.51050e-05, -0.91661924, 0.00035402826, 0.551194
3.18100, 0.00036444858, -0.031354111, 1.53433e-05, -0.91711574, 0.00035402826, 0.551194
3.18200, 0.00036452383, -0.031281777, 1.53765e-05, -0.91240014, 0.00035402826, 0.551194
3.18300, 0.00036477978, -0.031019596, 1.54867e-05, -0.89618004, 0.00035402826, 0.551194
3.18400, 0.00036486924, -0.030813275, 1.54974e-05, -0.88869734, 0.00035402826, 0.551194
3.18500, 0.00036496190, -0.030842282, 1.55709e-05, -0.88499954, 0.00035402826, 0.551194
3.18600, 0.00036500771, -0.030873192, 1.56115e-05, -0.88345794, 0.00035402826, 0.551194
3.18700, 0.00036515018, -0.031125117, 1.57774e-05, -0.88128424, 0.00035402826, 0.551194
3.18800, 0.00036519362, -0.030921428, 1.57566e-05, -0.87596904, 0.00035402826, 0.551194
3.18900, 0.00036539492, -0.030733850, 1.58554e-05, -0.86407184, 0.00035402826, 0.551194
3.19000, 0.00036564145, -0.030708624, 1.60291e-05, -0.85308154, 0.00035402826, 0.551194
3.19100, 0.00036573031, -0.030325748, 1.60001e-05, -0.84287364, 0.00035402826, 0.551194
3.19200, 0.00036587360, -0.030441508, 1.61345e-05, -0.83883424, 0.00035402826, 0.551194
3.19300, 0.00036593043, -0.030826814, 1.62717e-05, -0.84299504, 0.00035402826, 0.551194
3.19400, 0.00036596986, -0.030817144, 1.62984e-05, -0.84119824, 0.00035402826, 0.551194
3.19500, 0.00036614063, -0.031151919, 1.65075e-05, -0.83980464, 0.00035402826, 0.551194
3.19600, 0.00036620372, -0.031524766, 1.66455e-05, -0.84336094, 0.00035402826, 0.551194
3.19700, 0.00036622690, -0.031469878, 1.66490e-05, -0.84151484, 0.00035402826, 0.551194
3.19800, 0.00036637903, -0.031260807, 1.67117e-05, -0.83202774, 0.00035402826, 0.551194
3.19900, 0.00036633848, -0.031583335, 1.67604e-05, -0.83894514, 0.00035402826, 0.551194
3.20000, 0.00036641995, -0.031829640, 1.68814e-05, -0.83971644, 0.00035402826, 0.551194
3.20100, 0.00036653701, -0.031980988, 1.70053e-05, -0.83752944, 0.00035402826, 0.551194
3.20200, 0.00036654427, -0.031775281, 1.69605e-05, -0.83391884, 0.00035402826, 0.551194
3.20300, 0.00036669666, -0.031809032, 1.70831e-05, -0.82855044, 0.00035402826, 0.551194
3.20400, 0.00036683076, -0.031600319, 1.71335e-05, -0.81999124, 0.00035402826, 0.551194
3.20500, 0.00036689017, -0.031401608, 1.71318e-05, -0.81454714, 0.00035402826, 0.551194
3.20600, 0.00036705351, -0.031369317, 1.72486e-05, -0.80786694, 0.00035402826, 0.551194
3.20700, 0.00036715203, -0.031709548, 1.74049e-05, -0.80974954, 0.00035402826, 0.551194
3.20800, 0.00036721174, -0.031756513, 1.74613e-05, -0.80827324, 0.00035402826, 0.551194
3.20900, 0.00036739476, -0.031805284, 1.76136e-05, -0.80239034, 0.00035402826, 0.551194
3.21000, 0.00036745244, -0.031702027, 1.76334e-05, -0.79861474, 0.00035402826, 0.551194
3.21100, 0.00036760526, -0.031605978, 1.77294e-05, -0.79160374, 0.00035402826, 0.551194
3.21200, 0.00036774619, -0.031645562, 1.78479e-05, -0.78724194, 0.00035402826, 0.551194
3.21300, 0.00036781533, -0.031441450, 1.78548e-05, -0.78153134, 0.00035402826, 0.551194
3.21400, 0.00036789593, -0.031431969, 1.79159e-05, -0.77858674, 0.00035402826, 0.551194
3.21500, 0.00036805055, -0.031611636, 1.80781e-05, -0.77613484, 0.00035402826, 0.551194
3.21600, 0.00036806522, -0.031378821, 1.80369e-05, -0.77191214, 0.00035402826, 0.551194
3.21700, 0.00036819861, -0.031530440, 1.81767e-05, -0.76983344, 0.00035402826, 0.551194
3.21800, 0.00036832714, -0.031460404, 1.82624e-05, -0.76438474, 0.00035402826, 0.551194
3.21900, 0.00036836831, -0.031416792, 1.82851e-05, -0.76230254, 0.00035402826, 0.551194
3.22000, 0.00036853060, -0.031437658, 1.84192e-05, -0.75730164, 0.00035402826, 0.551194
3.22100, 0.00036861567, -0.031354111, 1.84681e-05, -0.75315824, 0.00035402826, 0.551194
3.22200, 0.00036872787, -0.031040728, 1.84895e-05, -0.74455244, 0.00035402826, 0.551194
3.22300, 0.00036892201, -0.031148093, 1.86691e-05, -0.74005904, 0.00035402826, 0.551194
3.22400, 0.00036899631, -0.031050330, 1.87077e-05, -0.73614384, 0.00035402826, 0.551194
3.22500, 0.00036910855, -0.030906001, 1.87677e-05, -0.73034444, 0.00035402826, 0.551194
3.22600, 0.00036927332, -0.030965738, 1.89148e-05, -0.72622954, 0.00035402826, 0.551194
3.22700, 0.00036935102, -0.030728031, 1.89274e-05, -0.72005604, 0.00035402826, 0.551194
