time(s), Phieff(Wb), Thetaeff(rad), Phipl(Wb), DelTheta(rad), Phiext(Wb), Thetaext(rad)
3.00000, 0.00054796695, -0.018393626, 2.25322e-05, -0.51541344, 0.00052772171, 0.576639
3.00100, 0.00054781666, -0.018296149, 2.23737e-05, -0.51616524, 0.00052772171, 0.576639
3.00200, 0.00054776908, -0.018302662, 2.23324e-05, -0.51723534, 0.00052772171, 0.576639
3.00300, 0.00054760193, -0.018066652, 2.21250e-05, -0.51515824, 0.00052772171, 0.576639
3.00400, 0.00054750810, -0.018066652, 2.20409e-05, -0.51704324, 0.00052772171, 0.576639
3.00500, 0.00054741617, -0.017990608, 2.19401e-05, -0.51715304, 0.00052772171, 0.576639
3.00600, 0.00054731869, -0.017760521, 2.17976e-05, -0.51385784, 0.00052772171, 0.576639
3.00700, 0.00054719990, -0.017693268, 2.16746e-05, -0.51468824, 0.00052772171, 0.576639
3.00800, 0.00054712244, -0.017551202, 2.15718e-05, -0.51303794, 0.00052772171, 0.576639
3.00900, 0.00054699791, -0.017387420, 2.14213e-05, -0.51179834, 0.00052772171, 0.576639
3.01000, 0.00054687885, -0.017342797, 2.13023e-05, -0.51305984, 0.00052772171, 0.576639
3.01100, 0.00054680666, -0.017180497, 2.11993e-05, -0.51076924, 0.00052772171, 0.576639
3.01200, 0.00054666607, -0.017083075, 2.10495e-05, -0.51134444, 0.00052772171, 0.576639
3.01300, 0.00054662759, -0.017055137, 2.10078e-05, -0.51143374, 0.00052772171, 0.576639
3.01400, 0.00054649233, -0.016949963, 2.08614e-05, -0.51176634, 0.00052772171, 0.576639
3.01500, 0.00054637692, -0.016914761, 2.07483e-05, -0.51325204, 0.00052772171, 0.576639
3.01600, 0.00054633184, -0.016897131, 2.07047e-05, -0.51389294, 0.00052772171, 0.576639
3.01700, 0.00054622275, -0.016776761, 2.05771e-05, -0.51320864, 0.00052772171, 0.576639
3.01800, 0.00054608381, -0.016705550, 2.04357e-05, -0.51449174, 0.00052772171, 0.576639
3.01900, 0.00054603081, -0.016641201, 2.03719e-05, -0.51397394, 0.00052772171, 0.576639
3.02000, 0.00054591210, -0.016435763, 2.02159e-05, -0.51143734, 0.00052772171, 0.576639
3.02100, 0.00054582684, -0.016428510, 2.01378e-05, -0.51313764, 0.00052772171, 0.576639
3.02200, 0.00054572044, -0.016242413, 1.99990e-05, -0.51094014, 0.00052772171, 0.576639
3.02300, 0.00054558113, -0.016161473, 1.98528e-05, -0.51178824, 0.00052772171, 0.576639
3.02400, 0.00054554039, -0.016124550, 1.98083e-05, -0.51185434, 0.00052772171, 0.576639
3.02500, 0.00054541591, -0.015916189, 1.96468e-05, -0.50931744, 0.00052772171, 0.576639
3.02600, 0.00054529291, -0.015848635, 1.95202e-05, -0.51034124, 0.00052772171, 0.576639
3.02700, 0.00054521422, -0.015807210, 1.94388e-05, -0.51095844, 0.00052772171, 0.576639
3.02800, 0.00054512080, -0.015625158, 1.93120e-05, -0.50840424, 0.00052772171, 0.576639
3.02900, 0.00054500709, -0.015556341, 1.91938e-05, -0.50923704, 0.00052772171, 0.576639
3.03000, 0.00054495797, -0.015537171, 1.91451e-05, -0.50985924, 0.00052772171, 0.576639
3.03100, 0.00054485944, -0.015410049, 1.90260e-05, -0.50874234, 0.00052772171, 0.576639
3.03200, 0.00054475632, -0.015386823, 1.89277e-05, -0.51050084, 0.00052772171, 0.576639
3.03300, 0.00054471859, -0.015320825, 1.88787e-05, -0.50969484, 0.00052772171, 0.576639
3.03400, 0.00054454771, -0.015238903, 1.87039e-05, -0.51130624, 0.00052772171, 0.576639
3.03500, 0.00054447964, -0.015246725, 1.86445e-05, -0.51310354, 0.00052772171, 0.576639
3.03600, 0.00054438740, -0.015128985, 1.85341e-05, -0.51218444, 0.00052772171, 0.576639
3.03700, 0.00054426881, -0.014946651, 1.83842e-05, -0.51007424, 0.00052772171, 0.576639
3.03800, 0.00054420666, -0.015018263, 1.83456e-05, -0.51352774, 0.00052772171, 0.576639
3.03900, 0.00054411230, -0.014810439, 1.82111e-05, -0.51009434, 0.00052772171, 0.576639
3.04000, 0.00054395703, -0.014644499, 1.80323e-05, -0.50929024, 0.00052772171, 0.576639
3.04100, 0.00054394355, -0.014644499, 1.80190e-05, -0.50947984, 0.00052772171, 0.576639
3.04200, 0.00054378717, -0.014497229, 1.78441e-05, -0.50926824, 0.00052772171, 0.576639
3.04300, 0.00054368840, -0.014389931, 1.77296e-05, -0.50865354, 0.00052772171, 0.576639
3.04400, 0.00054361371, -0.014306846, 1.76428e-05, -0.50815724, 0.00052772171, 0.576639
3.04500, 0.00054352635, -0.014134996, 1.75249e-05, -0.50559004, 0.00052772171, 0.576639
3.04600, 0.00054341498, -0.014185509, 1.74355e-05, -0.50967814, 0.00052772171, 0.576639
3.04700, 0.00054336368, -0.014050404, 1.73573e-05, -0.50707974, 0.00052772171, 0.576639
3.04800, 0.00054323443, -0.013973832, 1.72230e-05, -0.50814134, 0.00052772171, 0.576639
3.04900, 0.00054317967, -0.013952488, 1.71682e-05, -0.50885314, 0.00052772171, 0.576639
3.05000, 0.00054313426, -0.013875377, 1.71090e-05, -0.50775264, 0.00052772171, 0.576639
3.05100, 0.00054295648, -0.013702466, 1.69076e-05, -0.50716654, 0.00052772171, 0.576639
3.05200, 0.00054293584, -0.013750233, 1.69001e-05, -0.50908084, 0.00052772171, 0.576639
3.05300, 0.00054282267, -0.013580118, 1.67583e-05, -0.50700574, 0.00052772171, 0.576639
3.05400, 0.00054271347, -0.013505295, 1.66433e-05, -0.50774074, 0.00052772171, 0.576639
3.05500, 0.00054267883, -0.013469940, 1.66037e-05, -0.50758054, 0.00052772171, 0.576639
3.05600, 0.00054259613, -0.013219809, 1.64718e-05, -0.50237824, 0.00052772171, 0.576639
3.05700, 0.00054244691, -0.013237833, 1.63396e-05, -0.50661674, 0.00052772171, 0.576639
3.05800, 0.00054240356, -0.013156534, 1.62816e-05, -0.50530914, 0.00052772171, 0.576639
3.05900, 0.00054224381, -0.012996998, 1.61000e-05, -0.50465204, 0.00052772171, 0.576639
3.06000, 0.00054219047, -0.012996998, 1.60523e-05, -0.50613994, 0.00052772171, 0.576639
3.06100, 0.00054210269, -0.012909566, 1.59524e-05, -0.50576644, 0.00052772171, 0.576639
3.06200, 0.00054198639, -0.012779630, 1.58170e-05, -0.50485824, 0.00052772171, 0.576639
3.06300, 0.00054193392, -0.012770299, 1.57682e-05, -0.50609504, 0.00052772171, 0.576639
3.06400, 0.00054185815, -0.012634214, 1.56679e-05, -0.50386504, 0.00052772171, 0.576639
3.06500, 0.00054175346, -0.012638931, 1.55742e-05, -0.50685814, 0.00052772171, 0.576639
3.06600, 0.00054169881, -0.012671901, 1.55323e-05, -0.50937414, 0.00052772171, 0.576639
3.06700, 0.00054164936, -0.012539502, 1.54577e-05, -0.50667924, 0.00052772171, 0.576639
3.06800, 0.00054148775, -0.012501417, 1.53020e-05, -0.50986014, 0.00052772171, 0.576639
3.06900, 0.00054144087, -0.012506183, 1.52624e-05, -0.51155214, 0.00052772171, 0.576639
3.07000, 0.00054136778, -0.012391268, 1.51687e-05, -0.50981324, 0.00052772171, 0.576639
3.07100, 0.00054125640, -0.012343071, 1.50564e-05, -0.51135874, 0.00052772171, 0.576639
3.07200, 0.00054122273, -0.012270421, 1.50102e-05, -0.51012884, 0.00052772171, 0.576639
3.07300, 0.00054111161, -0.012069612, 1.48625e-05, -0.50666894, 0.00052772171, 0.576639
3.07400, 0.00054102921, -0.012104132, 1.47966e-05, -0.51025964, 0.00052772171, 0.576639
3.07500, 0.00054096774, -0.011950499, 1.47040e-05, -0.50677394, 0.00052772171, 0.576639
3.07600, 0.00054083913, -0.011825148, 1.45588e-05, -0.50636474, 0.00052772171, 0.576639
3.07700, 0.00054080853, -0.011875447, 1.45442e-05, -0.50914884, 0.00052772171, 0.576639
3.07800, 0.00054071596, -0.011723902, 1.44247e-05, -0.50668974, 0.00052772171, 0.576639
3.07900, 0.00054060619, -0.011678055, 1.43141e-05, -0.50829224, 0.00052772171, 0.576639
3.08000, 0.00054055489, -0.011632028, 1.42591e-05, -0.50856224, 0.00052772171, 0.576639
3.08100, 0.00054047668, -0.011626902, 1.41854e-05, -0.51047254, 0.00052772171, 0.576639
3.08200, 0.00054038907, -0.011560065, 1.40920e-05, -0.51102894, 0.00052772171, 0.576639
3.08300, 0.00054035824, -0.011601241, 1.40730e-05, -0.51327354, 0.00052772171, 0.576639
3.08400, 0.00054029480, -0.011414778, 1.39733e-05, -0.50892234, 0.00052772171, 0.576639
3.08500, 0.00054015072, -0.011482461, 1.38584e-05, -0.51563834, 0.00052772171, 0.576639
3.08600, 0.00054013084, -0.011399102, 1.38206e-05, -0.51329664, 0.00052772171, 0.576639
3.08700, 0.00054002282, -0.011214594, 1.36812e-05, -0.51035154, 0.00052772171, 0.576639
3.08800, 0.00053996724, -0.011278194, 1.36442e-05, -0.51410084, 0.00052772171, 0.576639
3.08900, 0.00053993497, -0.011091675, 1.35723e-05, -0.50858964, 0.00052772171, 0.576639
3.09000, 0.00053976953, -0.011010771, 1.34043e-05, -0.51098214, 0.00052772171, 0.576639
3.09100, 0.00053976206, -0.010951062, 1.33841e-05, -0.50912784, 0.00052772171, 0.576639
3.09200, 0.00053963976, -0.010808619, 1.32407e-05, -0.50789584, 0.00052772171, 0.576639
3.09300, 0.00053956549, -0.010714459, 1.31520e-05, -0.50687594, 0.00052772171, 0.576639
3.09400, 0.00053952798, -0.010708895, 1.31167e-05, -0.50787464, 0.00052772171, 0.576639
3.09500, 0.00053942783, -0.010568829, 1.29934e-05, -0.50588644, 0.00052772171, 0.576639
3.09600, 0.00053935158, -0.010551896, 1.29204e-05, -0.50774254, 0.00052772171, 0.576639
3.09700, 0.00053929960, -0.010551896, 1.28730e-05, -0.50940024, 0.00052772171, 0.576639
3.09800, 0.00053918442, -0.010335012, 1.27206e-05, -0.50534214, 0.00052772171, 0.576639
3.09900, 0.00053916361, -0.010483891, 1.27350e-05, -0.51149474, 0.00052772171, 0.576639
3.10000, 0.00053911039, -0.010335012, 1.26523e-05, -0.50760904, 0.00052772171, 0.576639
3.10100, 0.00053899799, -0.010300349, 1.25422e-05, -0.51001764, 0.00052772171, 0.576639
3.10200, 0.00053890665, -0.010329243, 1.24662e-05, -0.51422924, 0.00052772171, 0.576639
3.10300, 0.00053884500, -0.010142904, 1.23686e-05, -0.50937044, 0.00052772171, 0.576639
3.10400, 0.00053872486, -0.010030627, 1.22334e-05, -0.50904074, 0.00052772171, 0.576639
3.10500, 0.00053869285, -0.010030627, 1.22046e-05, -0.51018454, 0.00052772171, 0.576639
3.10600, 0.00053860312, -0.0098022167, 1.20718e-05, -0.50443214, 0.00052772171, 0.576639
3.10700, 0.00053847996, -0.0097534489, 1.19484e-05, -0.50670564, 0.00052772171, 0.576639
3.10800, 0.00053849686, -0.0096921436, 1.19490e-05, -0.50351704, 0.00052772171, 0.576639
3.10900, 0.00053834245, -0.0095309056, 1.17731e-05, -0.50261044, 0.00052772171, 0.576639
3.11000, 0.00053826850, -0.0094681596, 1.16911e-05, -0.50257154, 0.00052772171, 0.576639
3.11100, 0.00053822985, -0.0093986560, 1.16414e-05, -0.50130584, 0.00052772171, 0.576639
3.11200, 0.00053813147, -0.0092902174, 1.15262e-05, -0.50011684, 0.00052772171, 0.576639
3.11300, 0.00053806090, -0.0093986560, 1.14880e-05, -0.50743094, 0.00052772171, 0.576639
3.11400, 0.00053801393, -0.0092193726, 1.14038e-05, -0.50150824, 0.00052772171, 0.576639
3.11500, 0.00053788600, -0.0091349371, 1.12695e-05, -0.50285104, 0.00052772171, 0.576639
3.11600, 0.00053789017, -0.0092064328, 1.12907e-05, -0.50594444, 0.00052772171, 0.576639
3.11700, 0.00053778843, -0.0090365326, 1.11589e-05, -0.50234884, 0.00052772171, 0.576639
3.11800, 0.00053770454, -0.0090233311, 1.10808e-05, -0.50514434, 0.00052772171, 0.576639
3.11900, 0.00053762034, -0.0089703295, 1.09923e-05, -0.50605264, 0.00052772171, 0.576639
3.12000, 0.00053757975, -0.0088969376, 1.09371e-05, -0.50409114, 0.00052772171, 0.576639
3.12100, 0.00053745360, -0.0088026440, 1.08038e-05, -0.50533094, 0.00052772171, 0.576639
3.12200, 0.00053739419, -0.0087755164, 1.07409e-05, -0.50589984, 0.00052772171, 0.576639
3.12300, 0.00053731658, -0.0085832272, 1.06285e-05, -0.50067094, 0.00052772171, 0.576639
3.12400, 0.00053719655, -0.0085832272, 1.05189e-05, -0.50530544, 0.00052772171, 0.576639
3.12500, 0.00053717485, -0.0084784217, 1.04764e-05, -0.50159784, 0.00052772171, 0.576639
3.12600, 0.00053705457, -0.0083008055, 1.03278e-05, -0.49839944, 0.00052772171, 0.576639
3.12700, 0.00053700298, -0.0083151544, 1.02827e-05, -0.50085594, 0.00052772171, 0.576639
3.12800, 0.00053692485, -0.0081632324, 1.01773e-05, -0.49688354, 0.00052772171, 0.576639
3.12900, 0.00053681855, -0.0082069254, 1.00913e-05, -0.50348274, 0.00052772171, 0.576639
3.13000, 0.00053678280, -0.0081339730, 1.00424e-05, -0.50152484, 0.00052772171, 0.576639
3.13100, 0.00053670441, -0.0080677522, 9.95591e-06, -0.50157254, 0.00052772171, 0.576639
3.13200, 0.00053662708, -0.0080529628, 9.88245e-06, -0.50415124, 0.00052772171, 0.576639
3.13300, 0.00053657051, -0.0080529628, 9.83242e-06, -0.50684004, 0.00052772171, 0.576639
3.13400, 0.00053653652, -0.0079561593, 9.77966e-06, -0.50361674, 0.00052772171, 0.576639
3.13500, 0.00053641519, -0.0079561593, 9.66798e-06, -0.50852314, 0.00052772171, 0.576639
3.13600, 0.00053636401, -0.0078959977, 9.60844e-06, -0.50793344, 0.00052772171, 0.576639
3.13700, 0.00053625445, -0.0077281403, 9.47107e-06, -0.50445594, 0.00052772171, 0.576639
3.13800, 0.00053621522, -0.0077972459, 9.45199e-06, -0.50983494, 0.00052772171, 0.576639
3.13900, 0.00053611185, -0.0075801816, 9.30931e-06, -0.50360674, 0.00052772171, 0.576639
3.14000, 0.00053603716, -0.0074852272, 9.22019e-06, -0.50214784, 0.00052772171, 0.576639
3.14100, 0.00053599076, -0.0074772602, 9.17566e-06, -0.50371324, 0.00052772171, 0.576639
3.14200, 0.00053593640, -0.0073160925, 9.08916e-06, -0.49760504, 0.00052772171, 0.576639
3.14300, 0.00053579855, -0.0073323688, 8.96797e-06, -0.50493494, 0.00052772171, 0.576639
3.14400, 0.00053579483, -0.0072588385, 8.94755e-06, -0.50110964, 0.00052772171, 0.576639
3.14500, 0.00053567207, -0.0071679442, 8.81504e-06, -0.50190264, 0.00052772171, 0.576639
3.14600, 0.00053563337, -0.0071094972, 8.76771e-06, -0.50082114, 0.00052772171, 0.576639
3.14700, 0.00053558988, -0.0071094972, 8.72811e-06, -0.50287704, 0.00052772171, 0.576639
3.14800, 0.00053547461, -0.0069569508, 8.59197e-06, -0.50079884, 0.00052772171, 0.576639
3.14900, 0.00053547166, -0.0070166686, 8.60218e-06, -0.50409524, 0.00052772171, 0.576639
3.15000, 0.00053539681, -0.0069483779, 8.51563e-06, -0.50320894, 0.00052772171, 0.576639
3.15100, 0.00053532749, -0.0068620592, 8.43593e-06, -0.50248154, 0.00052772171, 0.576639
3.15200, 0.00053525352, -0.0069053532, 8.37917e-06, -0.50875224, 0.00052772171, 0.576639
3.15300, 0.00053519090, -0.0067570210, 8.28848e-06, -0.50344804, 0.00052772171, 0.576639
3.15400, 0.00053507349, -0.0067127701, 8.17165e-06, -0.50683454, 0.00052772171, 0.576639
3.15500, 0.00053508146, -0.0067746402, 8.19426e-06, -0.51031394, 0.00052772171, 0.576639
3.15600, 0.00053497721, -0.0065144957, 8.03935e-06, -0.50021104, 0.00052772171, 0.576639
3.15700, 0.00053491590, -0.0064685862, 7.97321e-06, -0.50065864, 0.00052772171, 0.576639
3.15800, 0.00053487152, -0.0064223483, 7.92000e-06, -0.49956344, 0.00052772171, 0.576639
3.15900, 0.00053478050, -0.0062815924, 7.80840e-06, -0.49659554, 0.00052772171, 0.576639
3.16000, 0.00053469254, -0.0062339678, 7.71576e-06, -0.49784114, 0.00052772171, 0.576639
3.16100, 0.00053465701, -0.0062052174, 7.67822e-06, -0.49831934, 0.00052772171, 0.576639
3.16200, 0.00053458960, -0.0060298378, 7.57822e-06, -0.49113544, 0.00052772171, 0.576639
3.16300, 0.00053451147, -0.0061570019, 7.53440e-06, -0.50310524, 0.00052772171, 0.576639
3.16400, 0.00053447499, -0.0059901671, 7.46541e-06, -0.49502004, 0.00052772171, 0.576639
3.16500, 0.00053439190, -0.0059502320, 7.38052e-06, -0.49699734, 0.00052772171, 0.576639
3.16600, 0.00053437431, -0.0060298378, 7.38132e-06, -0.50279314, 0.00052772171, 0.576639
3.16700, 0.00053430787, -0.0059100273, 7.29643e-06, -0.49954294, 0.00052772171, 0.576639
3.16800, 0.00053420762, -0.0058492022, 7.19201e-06, -0.50144454, 0.00052772171, 0.576639
3.16900, 0.00053417747, -0.0058999332, 7.17629e-06, -0.50659304, 0.00052772171, 0.576639
3.17000, 0.00053411909, -0.0057463958, 7.08787e-06, -0.49962984, 0.00052772171, 0.576639
3.17100, 0.00053401209, -0.0057256129, 6.98682e-06, -0.50484224, 0.00052772171, 0.576639
3.17200, 0.00053403266, -0.0056628073, 6.98789e-06, -0.49831354, 0.00052772171, 0.576639
3.17300, 0.00053392374, -0.0055242786, 6.85923e-06, -0.49577254, 0.00052772171, 0.576639
3.17400, 0.00053388845, -0.0054809502, 6.81979e-06, -0.49562794, 0.00052772171, 0.576639
3.17500, 0.00053381157, -0.0053932494, 6.73064e-06, -0.49428374, 0.00052772171, 0.576639
3.17600, 0.00053371073, -0.0053040981, 6.61914e-06, -0.49422394, 0.00052772171, 0.576639
3.17700, 0.00053370631, -0.0053711003, 6.62929e-06, -0.49904674, 0.00052772171, 0.576639
3.17800, 0.00053362481, -0.0052476097, 6.52805e-06, -0.49545144, 0.00052772171, 0.576639
3.17900, 0.00053352963, -0.0051327683, 6.41681e-06, -0.49341464, 0.00052772171, 0.576639
3.18000, 0.00053353302, -0.0051905066, 6.43141e-06, -0.49702134, 0.00052772171, 0.576639
3.18100, 0.00053346253, -0.0050743730, 6.34340e-06, -0.49363064, 0.00052772171, 0.576639
3.18200, 0.00053337464, -0.0050033992, 6.24419e-06, -0.49287514, 0.00052772171, 0.576639
3.18300, 0.00053335592, -0.0051211426, 6.25508e-06, -0.50357134, 0.00052772171, 0.576639
3.18400, 0.00053329889, -0.0049434761, 6.16053e-06, -0.49284584, 0.00052772171, 0.576639
3.18500, 0.00053320179, -0.0049795164, 6.08518e-06, -0.50391894, 0.00052772171, 0.576639
3.18600, 0.00053318857, -0.0049193022, 6.05650e-06, -0.49906904, 0.00052772171, 0.576639
3.18700, 0.00053307830, -0.0048583420, 5.94277e-06, -0.50200394, 0.00052772171, 0.576639
3.18800, 0.00053305159, -0.0047966070, 5.90827e-06, -0.50026434, 0.00052772171, 0.576639
3.18900, 0.00053299485, -0.0047841640, 5.84886e-06, -0.50149184, 0.00052772171, 0.576639
3.19000, 0.00053290543, -0.0045674569, 5.72128e-06, -0.49093194, 0.00052772171, 0.576639
3.19100, 0.00053284719, -0.0046579107, 5.68933e-06, -0.50298954, 0.00052772171, 0.576639
3.19200, 0.00053279570, -0.0044350382, 5.59512e-06, -0.48893424, 0.00052772171, 0.576639
3.19300, 0.00053269569, -0.0043536546, 5.48533e-06, -0.48908574, 0.00052772171, 0.576639
3.19400, 0.00053270828, -0.0043809502, 5.49908e-06, -0.48903624, 0.00052772171, 0.576639
3.19500, 0.00053260917, -0.0042567407, 5.38457e-06, -0.48689364, 0.00052772171, 0.576639
3.19600, 0.00053255787, -0.0041861427, 5.32484e-06, -0.48555864, 0.00052772171, 0.576639
3.19700, 0.00053249831, -0.0042567407, 5.28480e-06, -0.49595904, 0.00052772171, 0.576639
3.19800, 0.00053246160, -0.0041432069, 5.22198e-06, -0.48682654, 0.00052772171, 0.576639
3.19900, 0.00053236586, -0.0042145238, 5.15388e-06, -0.50229574, 0.00052772171, 0.576639
3.20000, 0.00053235719, -0.0041718800, 5.13630e-06, -0.49904324, 0.00052772171, 0.576639
3.20100, 0.00053230369, -0.0040998212, 5.07111e-06, -0.49655884, 0.00052772171, 0.576639
3.20200, 0.00053220707, -0.0041432069, 4.99390e-06, -0.50896724, 0.00052772171, 0.576639
3.20300, 0.00053218642, -0.0040559713, 4.95196e-06, -0.50103584, 0.00052772171, 0.576639
3.20400, 0.00053210429, -0.0039517637, 4.85808e-06, -0.49979814, 0.00052772171, 0.576639
3.20500, 0.00053210212, -0.0039214818, 4.85081e-06, -0.49768274, 0.00052772171, 0.576639
3.20600, 0.00053203122, -0.0037979390, 4.75770e-06, -0.49112514, 0.00052772171, 0.576639
3.20700, 0.00053192506, -0.0037505617, 4.64776e-06, -0.49442604, 0.00052772171, 0.576639
3.20800, 0.00053193916, -0.0037505617, 4.66316e-06, -0.49434124, 0.00052772171, 0.576639
3.20900, 0.00053183838, -0.0035881216, 4.53497e-06, -0.48636104, 0.00052772171, 0.576639
3.21000, 0.00053176161, -0.0035379357, 4.45566e-06, -0.48888474, 0.00052772171, 0.576639
3.21100, 0.00053174889, -0.0035379357, 4.44176e-06, -0.48894484, 0.00052772171, 0.576639
3.21200, 0.00053165149, -0.0033652480, 4.31387e-06, -0.47854684, 0.00052772171, 0.576639
3.21300, 0.00053163987, -0.0034526715, 4.32367e-06, -0.48997044, 0.00052772171, 0.576639
3.21400, 0.00053158981, -0.0033116860, 4.24728e-06, -0.47910314, 0.00052772171, 0.576639
3.21500, 0.00053149778, -0.0032754918, 4.15445e-06, -0.48342384, 0.00052772171, 0.576639
3.21600, 0.00053149078, -0.0033296358, 4.16399e-06, -0.49240124, 0.00052772171, 0.576639
3.21700, 0.00053140635, -0.0032388929, 4.06594e-06, -0.48984594, 0.00052772171, 0.576639
3.21800, 0.00053135056, -0.0032388929, 4.01742e-06, -0.49675584, 0.00052772171, 0.576639
3.21900, 0.00053129986, -0.0032754918, 3.97936e-06, -0.50623674, 0.00052772171, 0.576639
3.22000, 0.00053128406, -0.0030881630, 3.92266e-06, -0.48519504, 0.00052772171, 0.576639
3.22100, 0.00053114671, -0.0030881630, 3.79695e-06, -0.49955814, 0.00052772171, 0.576639
3.22200, 0.00053118561, -0.0030297067, 3.81718e-06, -0.48682124, 0.00052772171, 0.576639
3.22300, 0.00053108245, -0.0028887119, 3.69409e-06, -0.48121864, 0.00052772171, 0.576639
