time(s), Phieff(Wb), Thetaeff(rad), Phipl(Wb), DelTheta(rad), Phiext(Wb), Thetaext(rad)
3.00000, 0.00048814396, 0.033183098, 3.71605e-05, 2.6382430, 0.00052132116, 0.575905
3.00100, 0.00048835849, 0.032981269, 3.69253e-05, 2.6378734, 0.00052132116, 0.575905
3.00200, 0.00048854314, 0.032625068, 3.66804e-05, 2.6397579, 0.00052132116, 0.575905
3.00300, 0.00048870468, 0.032621410, 3.65365e-05, 2.6377523, 0.00052132116, 0.575905
3.00400, 0.00048891785, 0.032259390, 3.62658e-05, 2.6393225, 0.00052132116, 0.575905
3.00500, 0.00048913288, 0.032053605, 3.60284e-05, 2.6390426, 0.00052132116, 0.575905
3.00600, 0.00048930451, 0.031913813, 3.58444e-05, 2.6385248, 0.00052132116, 0.575905
3.00700, 0.00048947159, 0.031607863, 3.56275e-05, 2.6400440, 0.00052132116, 0.575905
3.00800, 0.00048964342, 0.031437658, 3.54368e-05, 2.6398766, 0.00052132116, 0.575905
3.00900, 0.00048987783, 0.031401608, 3.52205e-05, 2.6372659, 0.00052132116, 0.575905
3.01000, 0.00049006747, 0.031069523, 3.49770e-05, 2.6388681, 0.00052132116, 0.575905
3.01100, 0.00049025215, 0.030986907, 3.47946e-05, 2.6374414, 0.00052132116, 0.575905
3.01200, 0.00049041256, 0.030832615, 3.46173e-05, 2.6372326, 0.00052132116, 0.575905
3.01300, 0.00049063305, 0.030564632, 3.43611e-05, 2.6376364, 0.00052132116, 0.575905
3.01400, 0.00049077439, 0.030437591, 3.42072e-05, 2.6373227, 0.00052132116, 0.575905
3.01500, 0.00049100896, 0.030219408, 3.39492e-05, 2.6369426, 0.00052132116, 0.575905
3.01600, 0.00049116493, 0.029874189, 3.37327e-05, 2.6392381, 0.00052132116, 0.575905
3.01700, 0.00049135882, 0.029828256, 3.35507e-05, 2.6371477, 0.00052132116, 0.575905
3.01800, 0.00049152478, 0.029462274, 3.33203e-05, 2.6396301, 0.00052132116, 0.575905
3.01900, 0.00049174980, 0.029316230, 3.30876e-05, 2.6384180, 0.00052132116, 0.575905
3.02000, 0.00049187107, 0.029191926, 3.29514e-05, 2.6383875, 0.00052132116, 0.575905
3.02100, 0.00049209770, 0.028846812, 3.26717e-05, 2.6398141, 0.00052132116, 0.575905
3.02200, 0.00049226695, 0.028618591, 3.24701e-05, 2.6404674, 0.00052132116, 0.575905
3.02300, 0.00049246131, 0.028491244, 3.22689e-05, 2.6394126, 0.00052132116, 0.575905
3.02400, 0.00049263546, 0.028209480, 3.20504e-05, 2.6407602, 0.00052132116, 0.575905
3.02500, 0.00049280643, 0.028135421, 3.18816e-05, 2.6393282, 0.00052132116, 0.575905
3.02600, 0.00049298046, 0.027882148, 3.16701e-05, 2.6402752, 0.00052132116, 0.575905
3.02700, 0.00049320355, 0.027628710, 3.14140e-05, 2.6405847, 0.00052132116, 0.575905
3.02800, 0.00049335636, 0.027574718, 3.12664e-05, 2.6390774, 0.00052132116, 0.575905
3.02900, 0.00049356935, 0.027311882, 3.10174e-05, 2.6396501, 0.00052132116, 0.575905
3.03000, 0.00049374472, 0.027013412, 3.07938e-05, 2.6413014, 0.00052132116, 0.575905
3.03100, 0.00049387712, 0.027008999, 3.06753e-05, 2.6393797, 0.00052132116, 0.575905
3.03200, 0.00049410442, 0.026664702, 3.03950e-05, 2.6409423, 0.00052132116, 0.575905
3.03300, 0.00049427484, 0.026482999, 3.02035e-05, 2.6409347, 0.00052132116, 0.575905
3.03400, 0.00049444510, 0.026277365, 3.00048e-05, 2.6414068, 0.00052132116, 0.575905
3.03500, 0.00049462880, 0.026033500, 2.97867e-05, 2.6421702, 0.00052132116, 0.575905
3.03600, 0.00049476095, 0.025826596, 2.96225e-05, 2.6432107, 0.00052132116, 0.575905
3.03700, 0.00049499461, 0.025629653, 2.93694e-05, 2.6425965, 0.00052132116, 0.575905
3.03800, 0.00049517486, 0.025330193, 2.91419e-05, 2.6442874, 0.00052132116, 0.575905
3.03900, 0.00049539422, 0.025240608, 2.89265e-05, 2.6422060, 0.00052132116, 0.575905
3.04000, 0.00049554280, 0.024989013, 2.87375e-05, 2.6437190, 0.00052132116, 0.575905
3.04100, 0.00049576565, 0.024701096, 2.84746e-05, 2.6446121, 0.00052132116, 0.575905
3.04200, 0.00049591143, 0.024655202, 2.83332e-05, 2.6430791, 0.00052132116, 0.575905
3.04300, 0.00049615417, 0.024448827, 2.80704e-05, 2.6424110, 0.00052132116, 0.575905
3.04400, 0.00049632867, 0.024218554, 2.78636e-05, 2.6431840, 0.00052132116, 0.575905
3.04500, 0.00049651227, 0.024137193, 2.76815e-05, 2.6414917, 0.00052132116, 0.575905
3.04600, 0.00049668546, 0.023828989, 2.74583e-05, 2.6435511, 0.00052132116, 0.575905
3.04700, 0.00049687853, 0.023693519, 2.72550e-05, 2.6425979, 0.00052132116, 0.575905
3.04800, 0.00049706225, 0.023547145, 2.70587e-05, 2.6418874, 0.00052132116, 0.575905
3.04900, 0.00049726409, 0.023282379, 2.68186e-05, 2.6428874, 0.00052132116, 0.575905
3.05000, 0.00049742853, 0.023074061, 2.66257e-05, 2.6435173, 0.00052132116, 0.575905
3.05100, 0.00049762558, 0.022840371, 2.63970e-05, 2.6441047, 0.00052132116, 0.575905
3.05200, 0.00049783990, 0.022543529, 2.61390e-05, 2.6454613, 0.00052132116, 0.575905
3.05300, 0.00049795896, 0.022482630, 2.60194e-05, 2.6444166, 0.00052132116, 0.575905
3.05400, 0.00049820497, 0.022202492, 2.57368e-05, 2.6449626, 0.00052132116, 0.575905
3.05500, 0.00049834717, 0.021907894, 2.55432e-05, 2.6476457, 0.00052132116, 0.575905
3.05600, 0.00049857517, 0.021812454, 2.53185e-05, 2.6452663, 0.00052132116, 0.575905
3.05700, 0.00049870191, 0.021584438, 2.51538e-05, 2.6470778, 0.00052132116, 0.575905
3.05800, 0.00049893116, 0.021345614, 2.48966e-05, 2.6471508, 0.00052132116, 0.575905
3.05900, 0.00049909194, 0.021244843, 2.47297e-05, 2.6461136, 0.00052132116, 0.575905
3.06000, 0.00049926945, 0.020982280, 2.45130e-05, 2.6475971, 0.00052132116, 0.575905
3.06100, 0.00049945311, 0.020859763, 2.43207e-05, 2.6465323, 0.00052132116, 0.575905
3.06200, 0.00049965051, 0.020776726, 2.41257e-05, 2.6444075, 0.00052132116, 0.575905
3.06300, 0.00049984880, 0.020487815, 2.38842e-05, 2.6460445, 0.00052132116, 0.575905
3.06400, 0.00049998001, 0.020429544, 2.37535e-05, 2.6447003, 0.00052132116, 0.575905
3.06500, 0.00050020623, 0.020194773, 2.34981e-05, 2.6448982, 0.00052132116, 0.575905
3.06600, 0.00050035877, 0.019957241, 2.33084e-05, 2.6465366, 0.00052132116, 0.575905
3.06700, 0.00050051641, 0.019858431, 2.31464e-05, 2.6453121, 0.00052132116, 0.575905
3.06800, 0.00050072704, 0.019595545, 2.28987e-05, 2.6463802, 0.00052132116, 0.575905
3.06900, 0.00050089049, 0.019384516, 2.27059e-05, 2.6472809, 0.00052132116, 0.575905
3.07000, 0.00050107227, 0.019285863, 2.25201e-05, 2.6457470, 0.00052132116, 0.575905
3.07100, 0.00050121616, 0.019008793, 2.23301e-05, 2.6483767, 0.00052132116, 0.575905
3.07200, 0.00050139967, 0.018854512, 2.21311e-05, 2.6478503, 0.00052132116, 0.575905
3.07300, 0.00050159963, 0.018718075, 2.19214e-05, 2.6466129, 0.00052132116, 0.575905
3.07400, 0.00050176396, 0.018487368, 2.17227e-05, 2.6480224, 0.00052132116, 0.575905
3.07500, 0.00050193041, 0.018393626, 2.15530e-05, 2.6465232, 0.00052132116, 0.575905
3.07600, 0.00050211269, 0.018279850, 2.13646e-05, 2.6450999, 0.00052132116, 0.575905
3.07700, 0.00050231086, 0.018027017, 2.11309e-05, 2.6462691, 0.00052132116, 0.575905
3.07800, 0.00050246479, 0.018043542, 2.09963e-05, 2.6427081, 0.00052132116, 0.575905
3.07900, 0.00050265409, 0.017737010, 2.07579e-05, 2.6452806, 0.00052132116, 0.575905
3.08000, 0.00050283122, 0.017629143, 2.05756e-05, 2.6437652, 0.00052132116, 0.575905
3.08100, 0.00050298456, 0.017506996, 2.04104e-05, 2.6431587, 0.00052132116, 0.575905
3.08200, 0.00050318190, 0.017242834, 2.01747e-05, 2.6446583, 0.00052132116, 0.575905
3.08300, 0.00050329830, 0.017048147, 2.00272e-05, 2.6464164, 0.00052132116, 0.575905
3.08400, 0.00050347704, 0.016992111, 1.98535e-05, 2.6438038, 0.00052132116, 0.575905
3.08500, 0.00050367070, 0.016687701, 1.96128e-05, 2.6463010, 0.00052132116, 0.575905
3.08600, 0.00050380284, 0.016511748, 1.94547e-05, 2.6474097, 0.00052132116, 0.575905
3.08700, 0.00050401060, 0.016377633, 1.92389e-05, 2.6457422, 0.00052132116, 0.575905
3.08800, 0.00050416313, 0.016176220, 1.90576e-05, 2.6469200, 0.00052132116, 0.575905
3.08900, 0.00050436696, 0.016076421, 1.88517e-05, 2.6446254, 0.00052132116, 0.575905
3.09000, 0.00050451557, 0.015773235, 1.86515e-05, 2.6483476, 0.00052132116, 0.575905
3.09100, 0.00050472024, 0.015548675, 1.84178e-05, 2.6489766, 0.00052132116, 0.575905
3.09200, 0.00050486150, 0.015606074, 1.83037e-05, 2.6441829, 0.00052132116, 0.575905
3.09300, 0.00050506092, 0.015309148, 1.80582e-05, 2.6467459, 0.00052132116, 0.575905
3.09400, 0.00050524467, 0.015140801, 1.78566e-05, 2.6463792, 0.00052132116, 0.575905
3.09500, 0.00050539868, 0.015077679, 1.77036e-05, 2.6442406, 0.00052132116, 0.575905
3.09600, 0.00050559275, 0.014926697, 1.74968e-05, 2.6431139, 0.00052132116, 0.575905
3.09700, 0.00050577395, 0.014685145, 1.72787e-05, 2.6449578, 0.00052132116, 0.575905
3.09800, 0.00050590611, 0.014542387, 1.71286e-05, 2.6452758, 0.00052132116, 0.575905
3.09900, 0.00050608837, 0.014335981, 1.69183e-05, 2.6461232, 0.00052132116, 0.575905
3.10000, 0.00050621217, 0.014306846, 1.68018e-05, 2.6435325, 0.00052132116, 0.575905
3.10100, 0.00050637725, 0.014024926, 1.65902e-05, 2.6468771, 0.00052132116, 0.575905
3.10200, 0.00050659725, 0.013763232, 1.63346e-05, 2.6481931, 0.00052132116, 0.575905
3.10300, 0.00050668788, 0.013728541, 1.62462e-05, 2.6466239, 0.00052132116, 0.575905
3.10400, 0.00050688173, 0.013483209, 1.60178e-05, 2.6482141, 0.00052132116, 0.575905
3.10500, 0.00050702589, 0.013228824, 1.58312e-05, 2.6516097, 0.00052132116, 0.575905
3.10600, 0.00050723820, 0.013197246, 1.56326e-05, 2.6467083, 0.00052132116, 0.575905
3.10700, 0.00050732943, 0.012960256, 1.54987e-05, 2.6509817, 0.00052132116, 0.575905
3.10800, 0.00050754021, 0.012854041, 1.52852e-05, 2.6481931, 0.00052132116, 0.575905
3.10900, 0.00050764777, 0.012671901, 1.51476e-05, 2.6506269, 0.00052132116, 0.575905
3.11000, 0.00050784363, 0.012501417, 1.49337e-05, 2.6501110, 0.00052132116, 0.575905
3.11100, 0.00050799240, 0.012381644, 1.47728e-05, 2.6494916, 0.00052132116, 0.575905
3.11200, 0.00050816659, 0.012333409, 1.46059e-05, 2.6457355, 0.00052132116, 0.575905
3.11300, 0.00050831332, 0.012044894, 1.44096e-05, 2.6504181, 0.00052132116, 0.575905
3.11400, 0.00050852303, 0.011965453, 1.42040e-05, 2.6464517, 0.00052132116, 0.575905
3.11500, 0.00050862821, 0.011799918, 1.40726e-05, 2.6485393, 0.00052132116, 0.575905
3.11600, 0.00050880959, 0.011590960, 1.38627e-05, 2.6497638, 0.00052132116, 0.575905
3.11700, 0.00050894006, 0.011508388, 1.37273e-05, 2.6483276, 0.00052132116, 0.575905
3.11800, 0.00050909878, 0.011283478, 1.35342e-05, 2.6508644, 0.00052132116, 0.575905
3.11900, 0.00050929418, 0.011064772, 1.33095e-05, 2.6520727, 0.00052132116, 0.575905
3.12000, 0.00050942094, 0.011064772, 1.31964e-05, 2.6477497, 0.00052132116, 0.575905
3.12100, 0.00050956724, 0.010753331, 1.29948e-05, 2.6539562, 0.00052132116, 0.575905
3.12200, 0.00050977207, 0.010568829, 1.27705e-05, 2.6535099, 0.00052132116, 0.575905
3.12300, 0.00050992239, 0.010512280, 1.26219e-05, 2.6505325, 0.00052132116, 0.575905
3.12400, 0.00051006956, 0.010259762, 1.24326e-05, 2.6548822, 0.00052132116, 0.575905
3.12500, 0.00051022805, 0.010201501, 1.22780e-05, 2.6513131, 0.00052132116, 0.575905
3.12600, 0.00051042198, 0.010089876, 1.20785e-05, 2.6486218, 0.00052132116, 0.575905
3.12700, 0.00051055632, 0.0098446906, 1.19023e-05, 2.6533291, 0.00052132116, 0.575905
3.12800, 0.00051068251, 0.0099230884, 1.18058e-05, 2.6457045, 0.00052132116, 0.575905
3.12900, 0.00051086282, 0.0096304491, 1.15803e-05, 2.6501448, 0.00052132116, 0.575905
3.13000, 0.00051104900, 0.0095121255, 1.13840e-05, 2.6482647, 0.00052132116, 0.575905
3.13100, 0.00051120073, 0.0094807427, 1.12421e-05, 2.6433899, 0.00052132116, 0.575905
3.13200, 0.00051130815, 0.0092516420, 1.10939e-05, 2.6486852, 0.00052132116, 0.575905
3.13300, 0.00051148039, 0.0090562990, 1.08948e-05, 2.6501806, 0.00052132116, 0.575905
3.13400, 0.00051163550, 0.0089703295, 1.07376e-05, 2.6473043, 0.00052132116, 0.575905
3.13500, 0.00051177466, 0.0087414896, 1.05596e-05, 2.6519039, 0.00052132116, 0.575905
3.13600, 0.00051190017, 0.0086592790, 1.04291e-05, 2.6501801, 0.00052132116, 0.575905
3.13700, 0.00051207307, 0.0084573049, 1.02290e-05, 2.6518743, 0.00052132116, 0.575905
3.13800, 0.00051224229, 0.0083151544, 1.00436e-05, 2.6514289, 0.00052132116, 0.575905
3.13900, 0.00051236010, 0.0081851082, 9.91056e-06, 2.6519487, 0.00052132116, 0.575905
3.14000, 0.00051254362, 0.0081339730, 9.73246e-06, 2.6465409, 0.00052132116, 0.575905
3.14100, 0.00051270470, 0.0078048869, 9.51408e-06, 2.6551864, 0.00052132116, 0.575905
3.14200, 0.00051283533, 0.0078959977, 9.41764e-06, 2.6445162, 0.00052132116, 0.575905
3.14300, 0.00051301381, 0.0076037347, 9.19192e-06, 2.6506612, 0.00052132116, 0.575905
3.14400, 0.00051312669, 0.0075801816, 9.08415e-06, 2.6466825, 0.00052132116, 0.575905
3.14500, 0.00051331416, 0.0074772602, 8.89284e-06, 2.6427667, 0.00052132116, 0.575905
3.14600, 0.00051344703, 0.0072752428, 8.72658e-06, 2.6471164, 0.00052132116, 0.575905
3.14700, 0.00051359585, 0.0070843012, 8.55251e-06, 2.6492698, 0.00052132116, 0.575905
3.14800, 0.00051375899, 0.0071094972, 8.41028e-06, 2.6397688, 0.00052132116, 0.575905
3.14900, 0.00051390082, 0.0068009840, 8.21228e-06, 2.6497915, 0.00052132116, 0.575905
3.15000, 0.00051401325, 0.0066860789, 8.08601e-06, 2.6502178, 0.00052132116, 0.575905
3.15100, 0.00051416950, 0.0065144957, 7.90735e-06, 2.6516774, 0.00052132116, 0.575905
3.15200, 0.00051432349, 0.0063476670, 7.72997e-06, 2.6535471, 0.00052132116, 0.575905
3.15300, 0.00051445152, 0.0062530614, 7.59344e-06, 2.6521275, 0.00052132116, 0.575905
3.15400, 0.00051462636, 0.0060100351, 7.38277e-06, 2.6570428, 0.00052132116, 0.575905
3.15500, 0.00051476739, 0.0057774298, 7.20628e-06, 2.6632331, 0.00052132116, 0.575905
3.15600, 0.00051490265, 0.0058492022, 7.09818e-06, 2.6509121, 0.00052132116, 0.575905
3.15700, 0.00051508093, 0.0055779661, 6.87445e-06, 2.6590283, 0.00052132116, 0.575905
3.15800, 0.00051521100, 0.0053711003, 6.71640e-06, 2.6637161, 0.00052132116, 0.575905
3.15900, 0.00051535437, 0.0053599915, 6.58297e-06, 2.6557348, 0.00052132116, 0.575905
3.16000, 0.00051552299, 0.0051674889, 6.38816e-06, 2.6585972, 0.00052132116, 0.575905
3.16100, 0.00051562952, 0.0051211426, 6.27846e-06, 2.6559332, 0.00052132116, 0.575905
3.16200, 0.00051580048, 0.0049795164, 6.09432e-06, 2.6543043, 0.00052132116, 0.575905
3.16300, 0.00051598345, 0.0048213955, 5.89339e-06, 2.6538413, 0.00052132116, 0.575905
3.16400, 0.00051610415, 0.0047214595, 5.76274e-06, 2.6528251, 0.00052132116, 0.575905
3.16500, 0.00051627257, 0.0045281379, 5.56771e-06, 2.6561816, 0.00052132116, 0.575905
3.16600, 0.00051644437, 0.0043123867, 5.36534e-06, 2.6612756, 0.00052132116, 0.575905
3.16700, 0.00051652046, 0.0042567407, 5.28808e-06, 2.6586063, 0.00052132116, 0.575905
3.16800, 0.00051670326, 0.0041287956, 5.08972e-06, 2.6572559, 0.00052132116, 0.575905
3.16900, 0.00051684266, 0.0038291984, 4.90156e-06, 2.6725700, 0.00052132116, 0.575905
3.17000, 0.00051696584, 0.0038756146, 4.79590e-06, 2.6591213, 0.00052132116, 0.575905
3.17100, 0.00051711007, 0.0035881216, 4.60548e-06, 2.6741121, 0.00052132116, 0.575905
3.17200, 0.00051726219, 0.0034179704, 4.43404e-06, 2.6766279, 0.00052132116, 0.575905
3.17300, 0.00051743107, 0.0033652480, 4.26785e-06, 2.6669543, 0.00052132116, 0.575905
3.17400, 0.00051757516, 0.0031644255, 4.08920e-06, 2.6781299, 0.00052132116, 0.575905
3.17500, 0.00051769535, 0.0030881630, 3.96740e-06, 2.6727212, 0.00052132116, 0.575905
3.17600, 0.00051787585, 0.0030297067, 3.78533e-06, 2.6635993, 0.00052132116, 0.575905
3.17700, 0.00051802740, 0.0027621367, 3.59176e-06, 2.6803329, 0.00052132116, 0.575905
3.17800, 0.00051817212, 0.0028049632, 3.47044e-06, 2.6568163, 0.00052132116, 0.575905
3.17900, 0.00051831005, 0.0026520467, 3.31135e-06, 2.6613824, 0.00052132116, 0.575905
3.18000, 0.00051849106, 0.0024657000, 3.10372e-06, 2.6673582, 0.00052132116, 0.575905
3.18100, 0.00051860381, 0.0024657000, 3.00228e-06, 2.6512125, 0.00052132116, 0.575905
3.18200, 0.00051878881, 0.0021561920, 2.77453e-06, 2.6693499, 0.00052132116, 0.575905
3.18300, 0.00051890372, 0.0020716023, 2.64638e-06, 2.6712010, 0.00052132116, 0.575905
3.18400, 0.00051902513, 0.0020132356, 2.52765e-06, 2.6587632, 0.00052132116, 0.575905
3.18500, 0.00051920988, 0.0017605233, 2.29823e-06, 2.6839202, 0.00052132116, 0.575905
3.18600, 0.00051931729, 0.0016558425, 2.18232e-06, 2.6827977, 0.00052132116, 0.575905
3.18700, 0.00051945596, 0.0015440810, 2.02700e-06, 2.6876867, 0.00052132116, 0.575905
3.18800, 0.00051959316, 0.0013372133, 1.85739e-06, 2.7143705, 0.00052132116, 0.575905
3.18900, 0.00051976757, 0.0012448779, 1.68534e-06, 2.6917737, 0.00052132116, 0.575905
3.19000, 0.00051992778, 0.00097656250, 1.49290e-06, 2.7224968, 0.00052132116, 0.575905
3.19100, 0.00052007459, 0.00091349060, 1.33386e-06, 2.7258637, 0.00052132116, 0.575905
3.19200, 0.00052020256, 0.00097656250, 1.22846e-06, 2.6635444, 0.00052132116, 0.575905
3.19300, 0.00052037941, 0.00077204045, 1.02800e-06, 2.6770222, 0.00052132116, 0.575905
3.19400, 0.00052053381, 0.00059801998, 8.46775e-07, 2.7126248, 0.00052132116, 0.575905
3.19500, 0.00052065104, 0.00059801998, 7.39140e-07, 2.6539085, 0.00052132116, 0.575905
3.19600, 0.00052080738, 0.00048828125, 5.64321e-07, 2.6629765, 0.00052132116, 0.575905
3.19700, 0.00052096601, 0.00048828125, 4.03292e-07, 2.5957558, 0.00052132116, 0.575905
3.19800, 0.00052107662, 0.0000000, 2.74809e-07, 2.6155646, 0.00052132116, 0.575905
3.19900, 0.00052122053, 0.0000000, 1.02458e-07, 2.9004405, 0.00052132116, 0.575905
3.20000, 0.00052132116, -0.0000000, 0.00000, -2.1991150, 0.00052132116, 0.575905
3.20100, 0.00052152178, -0.0000000, 2.14052e-07, -0.40865814, 0.00052132116, 0.575905
3.20200, 0.00052165843, -0.00048828125, 3.92788e-07, -0.59077374, 0.00052132116, 0.575905
3.20300, 0.00052177219, -0.00048828125, 5.06176e-07, -0.52377384, 0.00052132116, 0.575905
3.20400, 0.00052189756, -0.00059801998, 6.44806e-07, -0.51749164, 0.00052132116, 0.575905
3.20500, 0.00052207066, -0.00077204045, 8.55432e-07, -0.55576514, 0.00052132116, 0.575905
3.20600, 0.00052220199, -0.00091349060, 9.93666e-07, -0.53404684, 0.00052132116, 0.575905
3.20700, 0.00052235690, -0.00097656250, 1.16496e-06, -0.52839654, 0.00052132116, 0.575905
3.20800, 0.00052248656, -0.0011451211, 1.30881e-06, -0.52550084, 0.00052132116, 0.575905
3.20900, 0.00052263900, -0.0010918301, 1.43347e-06, -0.45736774, 0.00052132116, 0.575905
3.21000, 0.00052280306, -0.0013810680, 1.64773e-06, -0.50560494, 0.00052132116, 0.575905
3.21100, 0.00052290073, -0.0013810680, 1.73840e-06, -0.48390484, 0.00052132116, 0.575905
3.21200, 0.00052308786, -0.0015440810, 1.93690e-06, -0.47553504, 0.00052132116, 0.575905
3.21300, 0.00052321477, -0.0016558425, 2.07926e-06, -0.47902824, 0.00052132116, 0.575905
3.21400, 0.00052335919, -0.0018269814, 2.24391e-06, -0.48503484, 0.00052132116, 0.575905
3.21500, 0.00052349152, -0.0018593199, 2.38386e-06, -0.47981884, 0.00052132116, 0.575905
3.21600, 0.00052360856, -0.0020716023, 2.53580e-06, -0.49978604, 0.00052132116, 0.575905
3.21700, 0.00052375868, -0.0020716023, 2.66943e-06, -0.47337194, 0.00052132116, 0.575905
3.21800, 0.00052387628, -0.0023920804, 2.83707e-06, -0.50320354, 0.00052132116, 0.575905
3.21900, 0.00052403438, -0.0024897563, 3.00984e-06, -0.50135794, 0.00052132116, 0.575905
3.22000, 0.00052413358, -0.0024897563, 3.10503e-06, -0.49129874, 0.00052132116, 0.575905
3.22100, 0.00052426193, -0.0027186358, 3.26665e-06, -0.50425774, 0.00052132116, 0.575905
3.22200, 0.00052443589, -0.0029296887, 3.47094e-06, -0.51089854, 0.00052132116, 0.575905
3.22300, 0.00052451534, -0.0029700999, 3.54754e-06, -0.50401814, 0.00052132116, 0.575905
3.22400, 0.00052470031, -0.0031832056, 3.76500e-06, -0.51069834, 0.00052132116, 0.575905
3.22500, 0.00052476805, -0.0032204373, 3.83342e-06, -0.50695194, 0.00052132116, 0.575905
3.22600, 0.00052498469, -0.0033116860, 4.04927e-06, -0.49409834, 0.00052132116, 0.575905
3.22700, 0.00052509553, -0.0034179704, 4.17681e-06, -0.49670864, 0.00052132116, 0.575905
3.22800, 0.00052519153, -0.0034004871, 4.26051e-06, -0.48540784, 0.00052132116, 0.575905
3.22900, 0.00052537894, -0.0035881216, 4.47013e-06, -0.48710604, 0.00052132116, 0.575905
3.23000, 0.00052547980, -0.0037186414, 4.59499e-06, -0.49361444, 0.00052132116, 0.575905
