time(s), Phieff(Wb), Thetaeff(rad), Phipl(Wb), DelTheta(rad), Phiext(Wb), Thetaext(rad)
3.00000, 0.00050057538, 0.0022107877, 2.89290e-05, 3.1798159, 0.000529482, 0.00000
3.00100, 0.00050076248, 0.0021561920, 2.87413e-05, 3.1794364, 0.000529482, 0.00000
3.00200, 0.00050089120, 0.0021561920, 2.86127e-05, 3.1796138, 0.000529482, 0.00000
3.00300, 0.00050119219, 0.0021561920, 2.83119e-05, 3.1799823, 0.000529482, 0.00000
3.00400, 0.00050131344, 0.0022107877, 2.81914e-05, 3.1807257, 0.000529482, 0.00000
3.00500, 0.00050152423, 0.0020132356, 2.79779e-05, 3.1784789, 0.000529482, 0.00000
3.00600, 0.00050172917, 0.0022107877, 2.77762e-05, 3.1815035, 0.000529482, 0.00000
3.00700, 0.00050195145, 0.0021283689, 2.75522e-05, 3.1801602, 0.000529482, 0.00000
3.00800, 0.00050207167, 0.0020132356, 2.74305e-05, 3.1788966, 0.000529482, 0.00000
3.00900, 0.00050231301, 0.0020716023, 2.71900e-05, 3.1798364, 0.000529482, 0.00000
3.01000, 0.00050246819, 0.0019223655, 2.70326e-05, 3.1778876, 0.000529482, 0.00000
3.01100, 0.00050265341, 0.0019834081, 2.68483e-05, 3.1788918, 0.000529482, 0.00000
3.01200, 0.00050288052, 0.0019834081, 2.66212e-05, 3.1790635, 0.000529482, 0.00000
3.01300, 0.00050295669, 0.0018593199, 2.65430e-05, 3.1771480, 0.000529482, 0.00000
3.01400, 0.00050322677, 0.0019223655, 2.62739e-05, 3.1783168, 0.000529482, 0.00000
3.01500, 0.00050337639, 0.0019223655, 2.61245e-05, 3.1786353, 0.000529482, 0.00000
3.01600, 0.00050356225, 0.0018269814, 2.59370e-05, 3.1771042, 0.000529482, 0.00000
3.01700, 0.00050376416, 0.0018593199, 2.57363e-05, 3.1784918, 0.000529482, 0.00000
3.01800, 0.00050393905, 0.0018593199, 2.55616e-05, 3.1788274, 0.000529482, 0.00000
3.01900, 0.00050409121, 0.0018593199, 2.54090e-05, 3.1784822, 0.000529482, 0.00000
3.02000, 0.00050431965, 0.0018593199, 2.51814e-05, 3.1795026, 0.000529482, 0.00000
3.02100, 0.00050447981, 0.0017605233, 2.50194e-05, 3.1777693, 0.000529482, 0.00000
3.02200, 0.00050463331, 0.0018269814, 2.48665e-05, 3.1785018, 0.000529482, 0.00000
3.02300, 0.00050484310, 0.0018593199, 2.46585e-05, 3.1804759, 0.000529482, 0.00000
3.02400, 0.00050498913, 0.0018269814, 2.45110e-05, 3.1791240, 0.000529482, 0.00000
3.02500, 0.00050517273, 0.0017263351, 2.43261e-05, 3.1778742, 0.000529482, 0.00000
3.02600, 0.00050533068, 0.0017605233, 2.41691e-05, 3.1790191, 0.000529482, 0.00000
3.02700, 0.00050550026, 0.0016558425, 2.39974e-05, 3.1768433, 0.000529482, 0.00000
3.02800, 0.00050570380, 0.0017263351, 2.37948e-05, 3.1780616, 0.000529482, 0.00000
3.02900, 0.00050586501, 0.0016558425, 2.36322e-05, 3.1766106, 0.000529482, 0.00000
3.03000, 0.00050598357, 0.0015440810, 2.35124e-05, 3.1752440, 0.000529482, 0.00000
3.03100, 0.00050623805, 0.0016558425, 2.32598e-05, 3.1776539, 0.000529482, 0.00000
3.03200, 0.00050637336, 0.0015822123, 2.31237e-05, 3.1768543, 0.000529482, 0.00000
3.03300, 0.00050650730, 0.0015440810, 2.29884e-05, 3.1753027, 0.000529482, 0.00000
3.03400, 0.00050672713, 0.0016558425, 2.27713e-05, 3.1787197, 0.000529482, 0.00000
3.03500, 0.00050685641, 0.0015440810, 2.26403e-05, 3.1768138, 0.000529482, 0.00000
3.03600, 0.00050705051, 0.0015440810, 2.24457e-05, 3.1763751, 0.000529482, 0.00000
3.03700, 0.00050721410, 0.0015822123, 2.22836e-05, 3.1782877, 0.000529482, 0.00000
3.03800, 0.00050732270, 0.0015440810, 2.21732e-05, 3.1762201, 0.000529482, 0.00000
3.03900, 0.00050755305, 0.0015822123, 2.19449e-05, 3.1788766, 0.000529482, 0.00000
3.04000, 0.00050770321, 0.0015822123, 2.17947e-05, 3.1789653, 0.000529482, 0.00000
3.04100, 0.00050779797, 0.0015440810, 2.16990e-05, 3.1779410, 0.000529482, 0.00000
3.04200, 0.00050804069, 0.0015822123, 2.14571e-05, 3.1791255, 0.000529482, 0.00000
3.04300, 0.00050820683, 0.0015822123, 2.12912e-05, 3.1795527, 0.000529482, 0.00000
3.04400, 0.00050833429, 0.0014648439, 2.11611e-05, 3.1764108, 0.000529482, 0.00000
3.04500, 0.00050850871, 0.0015440810, 2.09889e-05, 3.1793415, 0.000529482, 0.00000
3.04600, 0.00050866652, 0.0014648439, 2.08292e-05, 3.1771199, 0.000529482, 0.00000
3.04700, 0.00050881329, 0.0013810680, 2.06818e-05, 3.1764046, 0.000529482, 0.00000
3.04800, 0.00050902969, 0.0014648439, 2.04668e-05, 3.1784493, 0.000529482, 0.00000
3.04900, 0.00050909962, 0.0013810680, 2.03960e-05, 3.1773683, 0.000529482, 0.00000
3.05000, 0.00050931356, 0.0014648439, 2.01831e-05, 3.1789161, 0.000529482, 0.00000
3.05100, 0.00050949529, 0.0014648439, 2.00013e-05, 3.1789948, 0.000529482, 0.00000
3.05200, 0.00050959196, 0.0013810680, 1.99037e-05, 3.1778657, 0.000529482, 0.00000
3.05300, 0.00050981057, 0.0013810680, 1.96857e-05, 3.1788999, 0.000529482, 0.00000
3.05400, 0.00050994922, 0.0014648439, 1.95483e-05, 3.1806547, 0.000529482, 0.00000
3.05500, 0.00051010223, 0.0013372133, 1.93924e-05, 3.1769468, 0.000529482, 0.00000
3.05600, 0.00051025172, 0.0014648439, 1.92455e-05, 3.1805832, 0.000529482, 0.00000
3.05700, 0.00051042083, 0.0013810680, 1.90747e-05, 3.1785027, 0.000529482, 0.00000
3.05800, 0.00051054266, 0.0013372133, 1.89522e-05, 3.1776988, 0.000529482, 0.00000
3.05900, 0.00051077806, 0.0013372133, 1.87175e-05, 3.1789042, 0.000529482, 0.00000
3.06000, 0.00051083420, 0.0012448779, 1.86596e-05, 3.1764437, 0.000529482, 0.00000
3.06100, 0.00051105476, 0.0012448779, 1.84393e-05, 3.1770670, 0.000529482, 0.00000
3.06200, 0.00051120184, 0.0013372133, 1.82930e-05, 3.1783425, 0.000529482, 0.00000
3.06300, 0.00051130801, 0.0011451211, 1.81843e-05, 3.1746360, 0.000529482, 0.00000
3.06400, 0.00051149578, 0.0013372133, 1.79991e-05, 3.1786977, 0.000529482, 0.00000
3.06500, 0.00051164964, 0.0012448779, 1.78443e-05, 3.1775195, 0.000529482, 0.00000
3.06600, 0.00051175051, 0.0011451211, 1.77417e-05, 3.1748702, 0.000529482, 0.00000
3.06700, 0.00051197792, 0.0012448779, 1.75167e-05, 3.1788556, 0.000529482, 0.00000
3.06800, 0.00051211337, 0.0012448779, 1.73814e-05, 3.1792242, 0.000529482, 0.00000
3.06900, 0.00051226040, 0.0011451211, 1.72326e-05, 3.1766955, 0.000529482, 0.00000
3.07000, 0.00051245670, 0.0012448779, 1.70375e-05, 3.1787764, 0.000529482, 0.00000
3.07100, 0.00051257621, 0.0012448779, 1.69186e-05, 3.1798221, 0.000529482, 0.00000
3.07200, 0.00051273981, 0.0011451211, 1.67541e-05, 3.1786515, 0.000529482, 0.00000
3.07300, 0.00051290607, 0.0012448779, 1.65892e-05, 3.1808893, 0.000529482, 0.00000
3.07400, 0.00051301725, 0.0011451211, 1.64760e-05, 3.1779157, 0.000529482, 0.00000
3.07500, 0.00051320821, 0.0011451211, 1.62854e-05, 3.1787202, 0.000529482, 0.00000
3.07600, 0.00051335169, 0.0011451211, 1.61421e-05, 3.1791627, 0.000529482, 0.00000
3.07700, 0.00051344956, 0.00097656250, 1.60418e-05, 3.1751715, 0.000529482, 0.00000
3.07800, 0.00051365438, 0.0010918301, 1.58381e-05, 3.1773459, 0.000529482, 0.00000
3.07900, 0.00051382844, 0.0010918301, 1.56641e-05, 3.1776611, 0.000529482, 0.00000
3.08000, 0.00051391173, 0.00097656250, 1.55791e-05, 3.1746632, 0.000529482, 0.00000
3.08100, 0.00051410592, 0.00097656250, 1.53854e-05, 3.1757900, 0.000529482, 0.00000
3.08200, 0.00051424401, 0.00097656250, 1.52476e-05, 3.1765129, 0.000529482, 0.00000
3.08300, 0.00051440762, 0.00097656250, 1.50835e-05, 3.1757948, 0.000529482, 0.00000
3.08400, 0.00051459931, 0.0010918301, 1.48940e-05, 3.1799413, 0.000529482, 0.00000
3.08500, 0.00051470191, 0.00097656250, 1.47900e-05, 3.1776244, 0.000529482, 0.00000
3.08600, 0.00051487111, 0.00097656250, 1.46210e-05, 3.1782157, 0.000529482, 0.00000
3.08700, 0.00051504955, 0.0010918301, 1.44437e-05, 3.1804563, 0.000529482, 0.00000
3.08800, 0.00051509356, 0.00097656250, 1.43983e-05, 3.1780302, 0.000529482, 0.00000
3.08900, 0.00051534090, 0.0010918301, 1.41523e-05, 3.1807701, 0.000529482, 0.00000
3.09000, 0.00051546578, 0.0010918301, 1.40275e-05, 3.1810991, 0.000529482, 0.00000
3.09100, 0.00051558671, 0.00097656250, 1.39055e-05, 3.1793548, 0.000529482, 0.00000
3.09200, 0.00051578068, 0.00097656250, 1.37116e-05, 3.1797311, 0.000529482, 0.00000
3.09300, 0.00051588522, 0.0010918301, 1.36084e-05, 3.1823031, 0.000529482, 0.00000
3.09400, 0.00051605325, 0.00091349060, 1.34378e-05, 3.1777608, 0.000529482, 0.00000
3.09500, 0.00051623645, 0.00097656250, 1.32564e-05, 3.1814715, 0.000529482, 0.00000
3.09600, 0.00051638927, 0.00097656250, 1.31027e-05, 3.1800596, 0.000529482, 0.00000
3.09700, 0.00051645832, 0.00091349060, 1.30320e-05, 3.1768367, 0.000529482, 0.00000
3.09800, 0.00051669567, 0.00097656250, 1.27975e-05, 3.1828190, 0.000529482, 0.00000
3.09900, 0.00051676584, 0.00097656250, 1.27265e-05, 3.1813189, 0.000529482, 0.00000
3.10000, 0.00051694922, 0.00097656250, 1.25431e-05, 3.1815769, 0.000529482, 0.00000
3.10100, 0.00051713543, 0.00097656250, 1.23586e-05, 3.1851203, 0.000529482, 0.00000
3.10200, 0.00051720369, 0.00091349060, 1.22881e-05, 3.1809498, 0.000529482, 0.00000
3.10300, 0.00051742591, 0.00097656250, 1.20682e-05, 3.1858193, 0.000529482, 0.00000
3.10400, 0.00051755250, 0.0010918301, 1.19426e-05, 3.1878511, 0.000529482, 0.00000
3.10500, 0.00051763672, 0.00091349060, 1.18555e-05, 3.1825816, 0.000529482, 0.00000
3.10600, 0.00051788050, 0.00097656250, 1.16134e-05, 3.1863047, 0.000529482, 0.00000
3.10700, 0.00051799077, 0.00097656250, 1.15043e-05, 3.1886589, 0.000529482, 0.00000
3.10800, 0.00051814881, 0.00091349060, 1.13443e-05, 3.1852996, 0.000529482, 0.00000
3.10900, 0.00051828000, 0.00097656250, 1.12142e-05, 3.1876642, 0.000529482, 0.00000
3.11000, 0.00051843082, 0.00097656250, 1.10634e-05, 3.1880008, 0.000529482, 0.00000
3.11100, 0.00051857983, 0.00091349060, 1.09121e-05, 3.1836955, 0.000529482, 0.00000
3.11200, 0.00051876358, 0.00097656250, 1.07308e-05, 3.1890852, 0.000529482, 0.00000
3.11300, 0.00051884837, 0.00077204045, 1.06425e-05, 3.1819293, 0.000529482, 0.00000
3.11400, 0.00051900768, 0.00091349060, 1.04845e-05, 3.1851103, 0.000529482, 0.00000
3.11500, 0.00051916743, 0.00077204045, 1.03240e-05, 3.1838299, 0.000529482, 0.00000
3.11600, 0.00051925681, 0.00077204045, 1.02347e-05, 3.1841695, 0.000529482, 0.00000
3.11700, 0.00051945464, 0.00077204045, 1.00369e-05, 3.1847073, 0.000529482, 0.00000
3.11800, 0.00051957674, 0.00091349060, 9.91599e-06, 3.1875674, 0.000529482, 0.00000
3.11900, 0.00051971730, 0.00077204045, 9.77419e-06, 3.1851885, 0.000529482, 0.00000
3.12000, 0.00051989296, 0.00091349060, 9.60157e-06, 3.1921174, 0.000529482, 0.00000
3.12100, 0.00051999661, 0.00091349060, 9.49698e-06, 3.1904980, 0.000529482, 0.00000
3.12200, 0.00052013139, 0.00077204045, 9.36115e-06, 3.1885468, 0.000529482, 0.00000
3.12300, 0.00052031008, 0.00091349060, 9.18403e-06, 3.1924054, 0.000529482, 0.00000
3.12400, 0.00052040263, 0.00077204045, 9.08984e-06, 3.1891038, 0.000529482, 0.00000
3.12500, 0.00052052746, 0.00077204045, 8.96442e-06, 3.1880747, 0.000529482, 0.00000
3.12600, 0.00052070838, 0.00077204045, 8.78435e-06, 3.1905133, 0.000529482, 0.00000
3.12700, 0.00052076074, 0.00059801998, 8.72914e-06, 3.1836244, 0.000529482, 0.00000
3.12800, 0.00052099573, 0.00077204045, 8.49592e-06, 3.1887528, 0.000529482, 0.00000
3.12900, 0.00052107806, 0.00059801998, 8.41217e-06, 3.1853620, 0.000529482, 0.00000
3.13000, 0.00052120424, 0.00059801998, 8.28458e-06, 3.1817204, 0.000529482, 0.00000
3.13100, 0.00052135981, 0.00059801998, 8.13051e-06, 3.1863691, 0.000529482, 0.00000
3.13200, 0.00052149466, 0.00059801998, 7.99548e-06, 3.1863004, 0.000529482, 0.00000
3.13300, 0.00052158077, 0.00059801998, 7.90715e-06, 3.1798512, 0.000529482, 0.00000
3.13400, 0.00052176689, 0.00059801998, 7.72282e-06, 3.1858780, 0.000529482, 0.00000
3.13500, 0.00052187106, 0.00059801998, 7.61905e-06, 3.1873290, 0.000529482, 0.00000
3.13600, 0.00052201583, 0.00059801998, 7.47314e-06, 3.1843654, 0.000529482, 0.00000
3.13700, 0.00052218248, 0.00059801998, 7.30808e-06, 3.1895601, 0.000529482, 0.00000
3.13800, 0.00052222493, 0.00048828125, 7.26286e-06, 3.1811105, 0.000529482, 0.00000
3.13900, 0.00052244701, 0.00059801998, 7.04288e-06, 3.1885244, 0.000529482, 0.00000
3.14000, 0.00052252429, 0.00059801998, 6.96597e-06, 3.1898953, 0.000529482, 0.00000
3.14100, 0.00052262796, 0.00048828125, 6.85811e-06, 3.1756274, 0.000529482, 0.00000
3.14200, 0.00052279564, 0.00059801998, 6.69339e-06, 3.1870343, 0.000529482, 0.00000
3.14300, 0.00052293607, 0.00048828125, 6.55110e-06, 3.1809341, 0.000529482, 0.00000
3.14400, 0.00052303605, 0.00048828125, 6.45087e-06, 3.1802551, 0.000529482, 0.00000
3.14500, 0.00052318149, 0.00048828125, 6.30475e-06, 3.1778509, 0.000529482, 0.00000
3.14600, 0.00052328700, 0.00048828125, 6.19960e-06, 3.1797725, 0.000529482, 0.00000
3.14700, 0.00052343448, 0.0000000, 6.05037e-06, 3.1718995, 0.000529482, 0.00000
3.14800, 0.00052357368, 0.00048828125, 5.91313e-06, 3.1815812, 0.000529482, 0.00000
3.14900, 0.00052364740, 0.0000000, 5.83773e-06, 3.1739775, 0.000529482, 0.00000
3.15000, 0.00052379205, 0.00048828125, 5.69476e-06, 3.1822945, 0.000529482, 0.00000
3.15100, 0.00052394362, 0.00048828125, 5.54471e-06, 3.1889450, 0.000529482, 0.00000
3.15200, 0.00052401522, 0.00048828125, 5.47089e-06, 3.1799637, 0.000529482, 0.00000
3.15300, 0.00052415903, 0.00048828125, 5.32882e-06, 3.1880809, 0.000529482, 0.00000
3.15400, 0.00052430562, 0.00048828125, 5.18089e-06, 3.1829702, 0.000529482, 0.00000
3.15500, 0.00052439045, 0.0000000, 5.09520e-06, 3.1791183, 0.000529482, 0.00000
3.15600, 0.00052457023, 0.00048828125, 4.91578e-06, 3.1816088, 0.000529482, 0.00000
3.15700, 0.00052462964, 0.0000000, 4.85591e-06, 3.1793830, 0.000529482, 0.00000
3.15800, 0.00052476870, 0.0000000, 4.71544e-06, 3.1713840, 0.000529482, 0.00000
3.15900, 0.00052490657, 0.0000000, 4.57763e-06, 3.1722075, 0.000529482, 0.00000
3.16000, 0.00052497771, 0.0000000, 4.50605e-06, 3.1692254, 0.000529482, 0.00000
3.16100, 0.00052512235, 0.0000000, 4.36072e-06, 3.1632525, 0.000529482, 0.00000
3.16200, 0.00052524707, 0.0000000, 4.23595e-06, 3.1631247, 0.000529482, 0.00000
3.16300, 0.00052536077, 0.0000000, 4.12147e-06, 3.1511285, 0.000529482, 0.00000
3.16400, 0.00052547318, 0.0000000, 4.00920e-06, 3.1543743, 0.000529482, 0.00000
3.16500, 0.00052562080, 0.0000000, 3.86170e-06, 3.1568667, 0.000529482, 0.00000
3.16600, 0.00052565788, 0.0000000, 3.82417e-06, 3.1427814, 0.000529482, 0.00000
3.16700, 0.00052587255, 0.0000000, 3.61012e-06, 3.1600467, 0.000529482, 0.00000
3.16800, 0.00052593703, 0.0000000, 3.54544e-06, 3.1572215, 0.000529482, 0.00000
3.16900, 0.00052606706, 0.0000000, 3.41498e-06, 3.1436264, 0.000529482, 0.00000
3.17000, 0.00052618837, 0.0000000, 3.29464e-06, 3.1657340, 0.000529482, 0.00000
3.17100, 0.00052630342, 0.0000000, 3.17946e-06, 3.1644518, 0.000529482, 0.00000
3.17200, 0.00052636605, 0.0000000, 3.11639e-06, 3.1574489, 0.000529482, 0.00000
3.17300, 0.00052656356, 0.0000000, 2.91940e-06, 3.1665513, 0.000529482, 0.00000
3.17400, 0.00052656658, 0.0000000, 2.91587e-06, 3.1583049, 0.000529482, 0.00000
3.17500, 0.00052670883, 0.0000000, 2.77339e-06, 3.1526281, 0.000529482, 0.00000
3.17600, 0.00052685929, 0.0000000, 2.62303e-06, 3.1562287, 0.000529482, 0.00000
3.17700, 0.00052686876, 0.0000000, 2.61327e-06, 3.1412012, 0.000529482, 0.00000
3.17800, 0.00052709307, 0.0000000, 2.38901e-06, 3.1467520, 0.000529482, 0.00000
3.17900, 0.00052716524, 0.0000000, 2.31713e-06, 3.1584732, 0.000529482, 0.00000
3.18000, 0.00052723528, 0.0000000, 2.24688e-06, 3.1316172, 0.000529482, 0.00000
3.18100, 0.00052737686, 0.0000000, 2.10518e-06, 3.1414010, 0.000529482, 0.00000
3.18200, 0.00052746382, 0.0000000, 2.01822e-06, 3.1444637, 0.000529482, 0.00000
3.18300, 0.00052757800, 0.0000000, 1.90414e-06, 3.1317155, 0.000529482, 0.00000
3.18400, 0.00052771748, 0.0000000, 1.76474e-06, 3.1554352, 0.000529482, 0.00000
3.18500, 0.00052779731, 0.0000000, 1.68487e-06, 3.1543967, 0.000529482, 0.00000
3.18600, 0.00052789634, 0.0000000, 1.58600e-06, 3.1606843, 0.000529482, 0.00000
3.18700, 0.00052807094, 0.0000000, 1.41192e-06, 3.1756388, 0.000529482, 0.00000
3.18800, 0.00052809299, 0.0000000, 1.38905e-06, 3.1410395, 0.000529482, 0.00000
3.18900, 0.00052825302, 0.0000000, 1.22976e-06, 3.1762864, 0.000529482, 0.00000
3.19000, 0.00052836695, 0.0000000, 1.11612e-06, 3.1844327, 0.000529482, 0.00000
3.19100, 0.00052844109, 0.0000000, 1.04097e-06, 3.1347601, 0.000529482, 0.00000
3.19200, 0.00052858791, 0.0000000, 8.94590e-07, 3.1736280, 0.000529482, 0.00000
3.19300, 0.00052870459, 0.0000000, 7.77756e-07, 3.1701476, 0.000529482, 0.00000
3.19400, 0.00052875640, 0.0000000, 7.25730e-07, 3.1269461, 0.000529482, 0.00000
3.19500, 0.00052893610, 0.0000000, 5.47674e-07, 3.2208063, 0.000529482, 0.00000
3.19600, 0.00052900000, 0.0000000, 4.82049e-07, 3.1501824, 0.000529482, 0.00000
3.19700, 0.00052911155, 0.0000000, 3.70800e-07, 3.1009795, 0.000529482, 0.00000
3.19800, 0.00052925677, 0.0000000, 2.30048e-07, 3.3456594, 0.000529482, 0.00000
3.19900, 0.00052930640, 0.0000000, 1.77140e-07, 3.0114376, 0.000529482, 0.00000
3.20000, 0.00052948204, -0.0000000, 0.00000, -1.5707963, 0.000529482, 0.00000
3.20100, 0.00052956900, -0.0000000, 9.69993e-08, -0.45885364, 0.000529482, 0.00000
3.20200, 0.00052967800, 0.0000000, 1.96013e-07, 0.021153459, 0.000529482, 0.00000
3.20300, 0.00052983615, -0.0000000, 3.55872e-07, -0.099264941, 0.000529482, 0.00000
3.20400, 0.00052994280, -0.0000000, 4.63437e-07, -0.10786354, 0.000529482, 0.00000
3.20500, 0.00052997498, 0.0000000, 4.92994e-07, 0.016827859, 0.000529482, 0.00000
3.20600, 0.00053015708, -0.0000000, 6.76575e-07, -0.067385941, 0.000529482, 0.00000
3.20700, 0.00053021944, -0.0000000, 7.37869e-07, -0.035495841, 0.000529482, 0.00000
3.20800, 0.00053035043, 0.0000000, 8.68380e-07, 0.0020087590, 0.000529482, 0.00000
3.20900, 0.00053043385, -0.0000000, 9.51905e-07, -0.014020641, 0.000529482, 0.00000
3.21000, 0.00053054844, 0.0000000, 1.06646e-06, 0.010865959, 0.000529482, 0.00000
3.21100, 0.00053063470, 0.0000000, 1.15358e-06, 0.040046859, 0.000529482, 0.00000
3.21200, 0.00053074325, 0.0000000, 1.26123e-06, 0.0050645590, 0.000529482, 0.00000
3.21300, 0.00053078668, 0.0000000, 1.30535e-06, 0.032998959, 0.000529482, 0.00000
3.21400, 0.00053096100, 0.0000000, 1.47982e-06, 0.034017059, 0.000529482, 0.00000
3.21500, 0.00053106920, 0.0000000, 1.58764e-06, 0.024816759, 0.000529482, 0.00000
3.21600, 0.00053108787, 0.0000000, 1.60779e-06, 0.049461959, 0.000529482, 0.00000
3.21700, 0.00053129545, 0.0000000, 1.81356e-06, 0.013375059, 0.000529482, 0.00000
3.21800, 0.00053135496, 0.0000000, 1.87331e-06, 0.020130559, 0.000529482, 0.00000
3.21900, 0.00053143689, 0.0000000, 1.95525e-06, 0.020549859, 0.000529482, 0.00000
3.22000, 0.00053157473, 0.0000000, 2.09281e-06, 0.010443459, 0.000529482, 0.00000
3.22100, 0.00053165027, 0.0000000, 2.16826e-06, 0.0038466590, 0.000529482, 0.00000
3.22200, 0.00053178830, 0.0000000, 2.30699e-06, 0.025110459, 0.000529482, 0.00000
3.22300, 0.00053188572, 0.0000000, 2.40376e-06, 0.0076055590, 0.000529482, 0.00000
3.22400, 0.00053195341, 0.0000000, 2.47199e-06, 0.022388459, 0.000529482, 0.00000
3.22500, 0.00053208058, 0.0000000, 2.59942e-06, 0.026137859, 0.000529482, 0.00000
3.22600, 0.00053220263, 0.0000000, 2.72164e-06, 0.028026059, 0.000529482, 0.00000
3.22700, 0.00053222615, 0.0000000, 2.74703e-06, 0.046301159, 0.000529482, 0.00000
3.22800, 0.00053243888, 0.0000000, 2.95741e-06, 0.019833759, 0.000529482, 0.00000
3.22900, 0.00053247174, 0.0000000, 2.99147e-06, 0.034519659, 0.000529482, 0.00000
3.23000, 0.00053253514, 0.0000000, 3.05725e-06, 0.052276359, 0.000529482, 0.00000
3.23100, 0.00053266187, 0.0000000, 3.18210e-06, 0.037857659, 0.000529482, 0.00000
3.23200, 0.00053275447, 0.0000000, 3.27399e-06, 0.030946859, 0.000529482, 0.00000
3.23300, 0.00053285212, 0.0000000, 3.37292e-06, 0.041139559, 0.000529482, 0.00000
3.23400, 0.00053296521, 0.0000000, 3.48471e-06, 0.029712059, 0.000529482, 0.00000
3.23500, 0.00053301882, 0.0000000, 3.53865e-06, 0.032685159, 0.000529482, 0.00000
3.23600, 0.00053314302, 0.0000000, 3.66232e-06, 0.027198759, 0.000529482, 0.00000
3.23700, 0.00053326210, 0.0000000, 3.78109e-06, 0.023359059, 0.000529482, 0.00000
3.23800, 0.00053331247, 0.0000000, 3.83262e-06, 0.033954059, 0.000529482, 0.00000
3.23900, 0.00053344228, 0.0000000, 3.96110e-06, 0.020874759, 0.000529482, 0.00000
3.24000, 0.00053353990, 0.0000000, 4.05868e-06, 0.020296059, 0.000529482, 0.00000
