time(s), Phieff(Wb), Thetaeff(rad), Phipl(Wb), DelTheta(rad), Phiext(Wb), Thetaext(rad)
3.00000, 0.00044726201, 0.096567273, 9.31566e-05, 2.6086300, 0.00052775240, 0.576639
3.00100, 0.00044751737, 0.096199989, 9.28528e-05, 2.6086133, 0.00052775240, 0.576639
3.00200, 0.00044786501, 0.095921583, 9.24938e-05, 2.6076863, 0.00052775240, 0.576639
3.00300, 0.00044831224, 0.095833167, 9.20976e-05, 2.6053970, 0.00052775240, 0.576639
3.00400, 0.00044889909, 0.095792048, 9.15974e-05, 2.6020496, 0.00052775240, 0.576639
3.00500, 0.00044954121, 0.095730953, 9.10470e-05, 2.5984156, 0.00052775240, 0.576639
3.00600, 0.00045007948, 0.095882989, 9.06375e-05, 2.5944970, 0.00052775240, 0.576639
3.00700, 0.00045068484, 0.095830053, 9.01221e-05, 2.5909736, 0.00052775240, 0.576639
3.00800, 0.00045125419, 0.096039131, 8.97043e-05, 2.5865457, 0.00052775240, 0.576639
3.00900, 0.00045179374, 0.096385971, 8.93482e-05, 2.5816925, 0.00052775240, 0.576639
3.01000, 0.00045236843, 0.096385971, 8.88761e-05, 2.5780151, 0.00052775240, 0.576639
3.01100, 0.00045280400, 0.096864171, 8.86437e-05, 2.5731990, 0.00052775240, 0.576639
3.01200, 0.00045335932, 0.097124517, 8.82584e-05, 2.5684865, 0.00052775240, 0.576639
3.01300, 0.00045385783, 0.097461388, 8.79419e-05, 2.5637834, 0.00052775240, 0.576639
3.01400, 0.00045432243, 0.097856902, 8.76707e-05, 2.5590251, 0.00052775240, 0.576639
3.01500, 0.00045478669, 0.098140784, 8.73719e-05, 2.5547063, 0.00052775240, 0.576639
3.01600, 0.00045520547, 0.098350428, 8.70916e-05, 2.5509746, 0.00052775240, 0.576639
3.01700, 0.00045561541, 0.098684937, 8.68537e-05, 2.5467546, 0.00052775240, 0.576639
3.01800, 0.00045602624, 0.098760530, 8.65456e-05, 2.5435951, 0.00052775240, 0.576639
3.01900, 0.00045644538, 0.098895244, 8.62480e-05, 2.5401065, 0.00052775240, 0.576639
3.02000, 0.00045680551, 0.099226117, 8.60531e-05, 2.5361774, 0.00052775240, 0.576639
3.02100, 0.00045721949, 0.099328354, 8.57533e-05, 2.5328095, 0.00052775240, 0.576639
3.02200, 0.00045759885, 0.099491708, 8.54987e-05, 2.5294120, 0.00052775240, 0.576639
3.02300, 0.00045797796, 0.099702708, 8.52593e-05, 2.5257862, 0.00052775240, 0.576639
3.02400, 0.00045838296, 0.099793091, 8.49661e-05, 2.5224683, 0.00052775240, 0.576639
3.02500, 0.00045870651, 0.099930003, 8.47513e-05, 2.5195220, 0.00052775240, 0.576639
3.02600, 0.00045908950, 0.10000287, 8.44721e-05, 2.5163992, 0.00052775240, 0.576639
3.02700, 0.00045952805, 0.10001540, 8.41336e-05, 2.5130909, 0.00052775240, 0.576639
3.02800, 0.00045983491, 0.10022531, 8.39552e-05, 2.5099065, 0.00052775240, 0.576639
3.02900, 0.00046029770, 0.10012995, 8.35681e-05, 2.5068333, 0.00052775240, 0.576639
3.03000, 0.00046064531, 0.10009357, 8.32884e-05, 2.5043514, 0.00052775240, 0.576639
3.03100, 0.00046103654, 0.10014128, 8.30000e-05, 2.5011609, 0.00052775240, 0.576639
3.03200, 0.00046147503, 0.099978983, 8.26140e-05, 2.4984896, 0.00052775240, 0.576639
3.03300, 0.00046180468, 0.099868447, 8.23277e-05, 2.4964140, 0.00052775240, 0.576639
3.03400, 0.00046225659, 0.099699721, 8.19306e-05, 2.4936211, 0.00052775240, 0.576639
3.03500, 0.00046261757, 0.099541500, 8.16071e-05, 2.4914696, 0.00052775240, 0.576639
3.03600, 0.00046301971, 0.099354193, 8.12432e-05, 2.4891107, 0.00052775240, 0.576639
3.03700, 0.00046337586, 0.099098481, 8.08947e-05, 2.4873931, 0.00052775240, 0.576639
3.03800, 0.00046384598, 0.098791353, 8.04439e-05, 2.4849742, 0.00052775240, 0.576639
3.03900, 0.00046422818, 0.098698854, 8.01251e-05, 2.4822948, 0.00052775240, 0.576639
3.04000, 0.00046460230, 0.098403223, 7.97515e-05, 2.4805601, 0.00052775240, 0.576639
3.04100, 0.00046500821, 0.098022699, 7.93280e-05, 2.4789312, 0.00052775240, 0.576639
3.04200, 0.00046532090, 0.097825781, 7.90313e-05, 2.4772327, 0.00052775240, 0.576639
3.04300, 0.00046573890, 0.097546488, 7.86299e-05, 2.4750183, 0.00052775240, 0.576639
3.04400, 0.00046609404, 0.097171836, 7.82470e-05, 2.4737418, 0.00052775240, 0.576639
3.04500, 0.00046638359, 0.096962117, 7.79642e-05, 2.4722593, 0.00052775240, 0.576639
3.04600, 0.00046680306, 0.096449748, 7.74905e-05, 2.4710472, 0.00052775240, 0.576639
3.04700, 0.00046706110, 0.096144125, 7.72020e-05, 2.4702528, 0.00052775240, 0.576639
3.04800, 0.00046742067, 0.095853724, 7.68420e-05, 2.4685114, 0.00052775240, 0.576639
3.04900, 0.00046778817, 0.095307238, 7.63970e-05, 2.4678729, 0.00052775240, 0.576639
3.05000, 0.00046805796, 0.094906159, 7.60702e-05, 2.4674032, 0.00052775240, 0.576639
3.05100, 0.00046845655, 0.094380140, 7.56080e-05, 2.4663928, 0.00052775240, 0.576639
3.05200, 0.00046872670, 0.093868978, 7.52471e-05, 2.4664280, 0.00052775240, 0.576639
3.05300, 0.00046909209, 0.093337126, 7.48079e-05, 2.4657295, 0.00052775240, 0.576639
3.05400, 0.00046941184, 0.092793874, 7.43992e-05, 2.4654892, 0.00052775240, 0.576639
3.05500, 0.00046986573, 0.092086822, 7.38389e-05, 2.4648402, 0.00052775240, 0.576639
3.05600, 0.00047023470, 0.091493778, 7.33775e-05, 2.4644020, 0.00052775240, 0.576639
3.05700, 0.00047078021, 0.090474330, 7.26512e-05, 2.4644482, 0.00052775240, 0.576639
3.05800, 0.00047138917, 0.089619949, 7.19276e-05, 2.4631178, 0.00052775240, 0.576639
3.05900, 0.00047196627, 0.089035325, 7.13116e-05, 2.4607198, 0.00052775240, 0.576639
3.06000, 0.00047254228, 0.088413768, 7.06848e-05, 2.4584878, 0.00052775240, 0.576639
3.06100, 0.00047275610, 0.088057987, 7.04131e-05, 2.4582832, 0.00052775240, 0.576639
3.06200, 0.00047302017, 0.087653115, 7.00882e-05, 2.4578569, 0.00052775240, 0.576639
3.06300, 0.00047319321, 0.087280571, 6.98422e-05, 2.4581173, 0.00052775240, 0.576639
3.06400, 0.00047323330, 0.086858347, 6.96805e-05, 2.4598973, 0.00052775240, 0.576639
3.06500, 0.00047337903, 0.086300701, 6.93970e-05, 2.4613912, 0.00052775240, 0.576639
3.06600, 0.00047354142, 0.085710205, 6.90916e-05, 2.4629014, 0.00052775240, 0.576639
3.06700, 0.00047369216, 0.085285120, 6.88456e-05, 2.4636886, 0.00052775240, 0.576639
3.06800, 0.00047392041, 0.084600136, 6.84612e-05, 2.4650991, 0.00052775240, 0.576639
3.06900, 0.00047404593, 0.083976395, 6.81733e-05, 2.4671962, 0.00052775240, 0.576639
3.07000, 0.00047419808, 0.083310761, 6.78531e-05, 2.4692748, 0.00052775240, 0.576639
3.07100, 0.00047442457, 0.082680926, 6.74869e-05, 2.4704835, 0.00052775240, 0.576639
3.07200, 0.00047459425, 0.082161099, 6.71984e-05, 2.4716513, 0.00052775240, 0.576639
3.07300, 0.00047478984, 0.081515081, 6.68513e-05, 2.4732750, 0.00052775240, 0.576639
3.07400, 0.00047497402, 0.080961265, 6.65412e-05, 2.4745252, 0.00052775240, 0.576639
3.07500, 0.00047514486, 0.080363549, 6.62281e-05, 2.4761617, 0.00052775240, 0.576639
3.07600, 0.00047529305, 0.079945937, 6.59871e-05, 2.4770410, 0.00052775240, 0.576639
3.07700, 0.00047555662, 0.079144068, 6.55412e-05, 2.4789465, 0.00052775240, 0.576639
3.07800, 0.00047567547, 0.078791209, 6.53427e-05, 2.4797704, 0.00052775240, 0.576639
3.07900, 0.00047592880, 0.078156337, 6.49551e-05, 2.4808843, 0.00052775240, 0.576639
3.08000, 0.00047615949, 0.077604733, 6.46104e-05, 2.4817593, 0.00052775240, 0.576639
3.08100, 0.00047627632, 0.077157527, 6.43852e-05, 2.4831712, 0.00052775240, 0.576639
3.08200, 0.00047654970, 0.076423302, 6.39525e-05, 2.4847105, 0.00052775240, 0.576639
3.08300, 0.00047671197, 0.075953446, 6.36855e-05, 2.4858358, 0.00052775240, 0.576639
3.08400, 0.00047697602, 0.075365975, 6.33039e-05, 2.4866588, 0.00052775240, 0.576639
3.08500, 0.00047721997, 0.074817769, 6.29497e-05, 2.4874652, 0.00052775240, 0.576639
3.08600, 0.00047740266, 0.074192382, 6.26206e-05, 2.4893496, 0.00052775240, 0.576639
3.08700, 0.00047766359, 0.073637888, 6.22515e-05, 2.4900534, 0.00052775240, 0.576639
3.08800, 0.00047791297, 0.073054701, 6.18827e-05, 2.4910638, 0.00052775240, 0.576639
3.08900, 0.00047815366, 0.072535940, 6.15402e-05, 2.4917801, 0.00052775240, 0.576639
3.09000, 0.00047842079, 0.071977824, 6.11646e-05, 2.4924958, 0.00052775240, 0.576639
3.09100, 0.00047868075, 0.071384437, 6.07848e-05, 2.4935029, 0.00052775240, 0.576639
3.09200, 0.00047887929, 0.070932575, 6.04951e-05, 2.4942768, 0.00052775240, 0.576639
3.09300, 0.00047909310, 0.070373632, 6.01616e-05, 2.4955785, 0.00052775240, 0.576639
3.09400, 0.00047935145, 0.069792271, 5.97862e-05, 2.4965880, 0.00052775240, 0.576639
3.09500, 0.00047953122, 0.069416039, 5.95335e-05, 2.4971178, 0.00052775240, 0.576639
3.09600, 0.00047981117, 0.068909757, 5.91634e-05, 2.4974473, 0.00052775240, 0.576639
3.09700, 0.00047999183, 0.068324693, 5.88484e-05, 2.4993312, 0.00052775240, 0.576639
3.09800, 0.00048018850, 0.067898184, 5.85680e-05, 2.5000308, 0.00052775240, 0.576639
3.09900, 0.00048049480, 0.067279525, 5.81437e-05, 2.5008628, 0.00052775240, 0.576639
3.10000, 0.00048061413, 0.066898093, 5.79372e-05, 2.5021169, 0.00052775240, 0.576639
3.10100, 0.00048095925, 0.066271007, 5.74799e-05, 2.5026233, 0.00052775240, 0.576639
3.10200, 0.00048116425, 0.065665200, 5.71403e-05, 2.5044882, 0.00052775240, 0.576639
3.10300, 0.00048134650, 0.065256074, 5.68758e-05, 2.5053060, 0.00052775240, 0.576639
3.10400, 0.00048161444, 0.064643539, 5.64842e-05, 2.5065925, 0.00052775240, 0.576639
3.10500, 0.00048185152, 0.064168453, 5.61572e-05, 2.5072920, 0.00052775240, 0.576639
3.10600, 0.00048211433, 0.063595176, 5.57811e-05, 2.5084055, 0.00052775240, 0.576639
3.10700, 0.00048234313, 0.063112207, 5.54581e-05, 2.5092862, 0.00052775240, 0.576639
3.10800, 0.00048256134, 0.062730193, 5.51728e-05, 2.5095890, 0.00052775240, 0.576639
3.10900, 0.00048277076, 0.062218484, 5.48573e-05, 2.5109012, 0.00052775240, 0.576639
3.11000, 0.00048303513, 0.061777882, 5.45182e-05, 2.5111287, 0.00052775240, 0.576639
3.11100, 0.00048324524, 0.061388552, 5.42372e-05, 2.5115984, 0.00052775240, 0.576639
3.11200, 0.00048347298, 0.060938045, 5.39249e-05, 2.5123088, 0.00052775240, 0.576639
3.11300, 0.00048374869, 0.060456570, 5.35645e-05, 2.5127390, 0.00052775240, 0.576639
3.11400, 0.00048396071, 0.060036838, 5.32733e-05, 2.5134332, 0.00052775240, 0.576639
3.11500, 0.00048418068, 0.059574120, 5.29636e-05, 2.5143592, 0.00052775240, 0.576639
3.11600, 0.00048447211, 0.059031051, 5.25726e-05, 2.5151098, 0.00052775240, 0.576639
3.11700, 0.00048459377, 0.058657065, 5.23672e-05, 2.5165260, 0.00052775240, 0.576639
3.11800, 0.00048492053, 0.058006819, 5.19177e-05, 2.5177009, 0.00052775240, 0.576639
3.11900, 0.00048514375, 0.057564069, 5.16109e-05, 2.5185130, 0.00052775240, 0.576639
3.12000, 0.00048534822, 0.057086557, 5.13093e-05, 2.5198219, 0.00052775240, 0.576639
3.12100, 0.00048567149, 0.056571297, 5.09006e-05, 2.5200799, 0.00052775240, 0.576639
3.12200, 0.00048582760, 0.056144856, 5.06526e-05, 2.5215919, 0.00052775240, 0.576639
3.12300, 0.00048609844, 0.055611230, 5.02816e-05, 2.5226204, 0.00052775240, 0.576639
3.12400, 0.00048636836, 0.055114657, 4.99215e-05, 2.5233972, 0.00052775240, 0.576639
3.12500, 0.00048660205, 0.054729197, 4.96221e-05, 2.5237343, 0.00052775240, 0.576639
3.12600, 0.00048684818, 0.054304779, 4.93018e-05, 2.5242374, 0.00052775240, 0.576639
3.12700, 0.00048707957, 0.053823862, 4.89777e-05, 2.5253785, 0.00052775240, 0.576639
3.12800, 0.00048724040, 0.053550616, 4.87693e-05, 2.5256970, 0.00052775240, 0.576639
3.12900, 0.00048749996, 0.052989777, 4.83993e-05, 2.5272014, 0.00052775240, 0.576639
3.13000, 0.00048779192, 0.052617099, 4.80564e-05, 2.5267694, 0.00052775240, 0.576639
3.13100, 0.00048797340, 0.052136645, 4.77725e-05, 2.5285962, 0.00052775240, 0.576639
3.13200, 0.00048824360, 0.051663272, 4.74192e-05, 2.5292828, 0.00052775240, 0.576639
3.13300, 0.00048845283, 0.051255375, 4.71331e-05, 2.5302036, 0.00052775240, 0.576639
3.13400, 0.00048868674, 0.050739720, 4.67973e-05, 2.5317404, 0.00052775240, 0.576639
3.13500, 0.00048896331, 0.050314866, 4.64517e-05, 2.5320022, 0.00052775240, 0.576639
3.13600, 0.00048918090, 0.049878027, 4.61506e-05, 2.5331242, 0.00052775240, 0.576639
3.13700, 0.00048937462, 0.049514465, 4.58900e-05, 2.5339048, 0.00052775240, 0.576639
3.13800, 0.00048966847, 0.048898872, 4.54773e-05, 2.5356672, 0.00052775240, 0.576639
3.13900, 0.00048984040, 0.048666630, 4.52713e-05, 2.5355790, 0.00052775240, 0.576639
3.14000, 0.00049009600, 0.048167855, 4.49224e-05, 2.5368297, 0.00052775240, 0.576639
3.14100, 0.00049038095, 0.047858622, 4.46015e-05, 2.5360253, 0.00052775240, 0.576639
3.14200, 0.00049055443, 0.047469564, 4.43504e-05, 2.5373628, 0.00052775240, 0.576639
3.14300, 0.00049084345, 0.047003776, 4.39831e-05, 2.5379341, 0.00052775240, 0.576639
3.14400, 0.00049101608, 0.046725139, 4.37632e-05, 2.5382989, 0.00052775240, 0.576639
3.14500, 0.00049128195, 0.046401158, 4.34541e-05, 2.5378726, 0.00052775240, 0.576639
3.14600, 0.00049149057, 0.045980338, 4.31654e-05, 2.5391052, 0.00052775240, 0.576639
3.14700, 0.00049172509, 0.045575261, 4.28589e-05, 2.5398963, 0.00052775240, 0.576639
3.14800, 0.00049193978, 0.045179754, 4.25722e-05, 2.5408466, 0.00052775240, 0.576639
3.14900, 0.00049220607, 0.044795401, 4.22456e-05, 2.5410311, 0.00052775240, 0.576639
3.15000, 0.00049240467, 0.044477485, 4.19935e-05, 2.5414732, 0.00052775240, 0.576639
3.15100, 0.00049263171, 0.043954276, 4.16612e-05, 2.5435646, 0.00052775240, 0.576639
3.15200, 0.00049289804, 0.043604262, 4.13437e-05, 2.5434549, 0.00052775240, 0.576639
3.15300, 0.00049306884, 0.043292757, 4.11169e-05, 2.5442278, 0.00052775240, 0.576639
3.15400, 0.00049332080, 0.042771794, 4.07648e-05, 2.5460355, 0.00052775240, 0.576639
3.15500, 0.00049357827, 0.042341679, 4.04331e-05, 2.5468767, 0.00052775240, 0.576639
3.15600, 0.00049375234, 0.042090289, 4.02189e-05, 2.5470784, 0.00052775240, 0.576639
3.15700, 0.00049399955, 0.041677471, 3.99003e-05, 2.5479171, 0.00052775240, 0.576639
3.15800, 0.00049424248, 0.041273527, 3.95880e-05, 2.5487292, 0.00052775240, 0.576639
3.15900, 0.00049441475, 0.041057728, 3.93854e-05, 2.5485876, 0.00052775240, 0.576639
3.16000, 0.00049471119, 0.040606540, 3.90149e-05, 2.5491955, 0.00052775240, 0.576639
3.16100, 0.00049484910, 0.040437337, 3.88536e-05, 2.5490501, 0.00052775240, 0.576639
3.16200, 0.00049510075, 0.040025357, 3.85310e-05, 2.5499017, 0.00052775240, 0.576639
3.16300, 0.00049537147, 0.039658733, 3.82054e-05, 2.5499809, 0.00052775240, 0.576639
3.16400, 0.00049552733, 0.039461304, 3.80215e-05, 2.5498855, 0.00052775240, 0.576639
3.16500, 0.00049578072, 0.039040558, 3.76957e-05, 2.5508196, 0.00052775240, 0.576639
3.16600, 0.00049602824, 0.038656890, 3.73840e-05, 2.5514839, 0.00052775240, 0.576639
3.16700, 0.00049623908, 0.038350306, 3.71240e-05, 2.5518334, 0.00052775240, 0.576639
3.16800, 0.00049645248, 0.038052220, 3.68652e-05, 2.5520127, 0.00052775240, 0.576639
3.16900, 0.00049669443, 0.037671156, 3.65589e-05, 2.5527651, 0.00052775240, 0.576639
3.17000, 0.00049689909, 0.037385203, 3.63095e-05, 2.5530021, 0.00052775240, 0.576639
3.17100, 0.00049712422, 0.036950510, 3.60039e-05, 2.5546143, 0.00052775240, 0.576639
3.17200, 0.00049734396, 0.036642671, 3.57361e-05, 2.5548942, 0.00052775240, 0.576639
3.17300, 0.00049755806, 0.036389608, 3.54874e-05, 2.5546377, 0.00052775240, 0.576639
3.17400, 0.00049781472, 0.035971072, 3.51590e-05, 2.5556672, 0.00052775240, 0.576639
3.17500, 0.00049800587, 0.035731614, 3.49337e-05, 2.5555885, 0.00052775240, 0.576639
3.17600, 0.00049821919, 0.035445154, 3.46772e-05, 2.5557301, 0.00052775240, 0.576639
3.17700, 0.00049850553, 0.035088468, 3.43404e-05, 2.5555847, 0.00052775240, 0.576639
3.17800, 0.00049866708, 0.034836102, 3.41367e-05, 2.5561297, 0.00052775240, 0.576639
3.17900, 0.00049892635, 0.034490407, 3.38247e-05, 2.5563309, 0.00052775240, 0.576639
3.18000, 0.00049916484, 0.034142960, 3.35305e-05, 2.5568597, 0.00052775240, 0.576639
3.18100, 0.00049934490, 0.033936296, 3.33237e-05, 2.5565450, 0.00052775240, 0.576639
3.18200, 0.00049961940, 0.033501361, 3.29756e-05, 2.5576251, 0.00052775240, 0.576639
3.18300, 0.00049979023, 0.033192080, 3.27482e-05, 2.5588315, 0.00052775240, 0.576639
3.18400, 0.00050004163, 0.032943290, 3.24692e-05, 2.5579317, 0.00052775240, 0.576639
3.18500, 0.00050028407, 0.032546397, 3.21584e-05, 2.5591004, 0.00052775240, 0.576639
3.18600, 0.00050049122, 0.032233506, 3.18997e-05, 2.5597818, 0.00052775240, 0.576639
3.18700, 0.00050070621, 0.031923153, 3.16347e-05, 2.5603287, 0.00052775240, 0.576639
3.18800, 0.00050099128, 0.031481244, 3.12763e-05, 2.5614312, 0.00052775240, 0.576639
3.18900, 0.00050117475, 0.031304639, 3.10736e-05, 2.5607216, 0.00052775240, 0.576639
3.19000, 0.00050139408, 0.030873192, 3.07727e-05, 2.5629003, 0.00052775240, 0.576639
3.19100, 0.00050169287, 0.030543169, 3.04319e-05, 2.5623024, 0.00052775240, 0.576639
3.19200, 0.00050182440, 0.030412119, 3.02852e-05, 2.5618608, 0.00052775240, 0.576639
3.19300, 0.00050210607, 0.030053245, 2.99509e-05, 2.5619786, 0.00052775240, 0.576639
3.19400, 0.00050235794, 0.029726155, 2.96501e-05, 2.5621908, 0.00052775240, 0.576639
3.19500, 0.00050256795, 0.029518874, 2.94170e-05, 2.5614083, 0.00052775240, 0.576639
3.19600, 0.00050279166, 0.029097836, 2.91154e-05, 2.5634992, 0.00052775240, 0.576639
3.19700, 0.00050302120, 0.028879857, 2.88624e-05, 2.5625427, 0.00052775240, 0.576639
3.19800, 0.00050323177, 0.028608173, 2.86110e-05, 2.5627377, 0.00052775240, 0.576639
3.19900, 0.00050353193, 0.028160835, 2.82372e-05, 2.5639088, 0.00052775240, 0.576639
3.20000, 0.00050368141, 0.027990974, 2.80648e-05, 2.5637138, 0.00052775240, 0.576639
3.20100, 0.00050395048, 0.027572555, 2.77258e-05, 2.5650337, 0.00052775240, 0.576639
3.20200, 0.00050421099, 0.027217867, 2.74108e-05, 2.5655668, 0.00052775240, 0.576639
3.20300, 0.00050438312, 0.026898416, 2.71793e-05, 2.5673292, 0.00052775240, 0.576639
3.20400, 0.00050465818, 0.026514493, 2.68432e-05, 2.5681574, 0.00052775240, 0.576639
3.20500, 0.00050489433, 0.026154578, 2.65475e-05, 2.5693319, 0.00052775240, 0.576639
3.20600, 0.00050513660, 0.025845055, 2.62595e-05, 2.5696085, 0.00052775240, 0.576639
3.20700, 0.00050529879, 0.025480364, 2.60249e-05, 2.5724495, 0.00052775240, 0.576639
3.20800, 0.00050558443, 0.025160180, 2.56963e-05, 2.5721285, 0.00052775240, 0.576639
3.20900, 0.00050579687, 0.024993783, 2.54714e-05, 2.5706198, 0.00052775240, 0.576639
3.21000, 0.00050606899, 0.024657618, 2.51507e-05, 2.5707939, 0.00052775240, 0.576639
3.21100, 0.00050625875, 0.024458578, 2.49359e-05, 2.5703342, 0.00052775240, 0.576639
3.21200, 0.00050648407, 0.024097646, 2.46483e-05, 2.5719659, 0.00052775240, 0.576639
3.21300, 0.00050677982, 0.023776397, 2.43113e-05, 2.5714057, 0.00052775240, 0.576639
3.21400, 0.00050695173, 0.023683453, 2.41402e-05, 2.5693739, 0.00052775240, 0.576639
3.21500, 0.00050721754, 0.023238812, 2.37955e-05, 2.5717442, 0.00052775240, 0.576639
3.21600, 0.00050747261, 0.022978276, 2.35092e-05, 2.5709441, 0.00052775240, 0.576639
3.21700, 0.00050769394, 0.022759322, 2.32622e-05, 2.5701354, 0.00052775240, 0.576639
3.21800, 0.00050793111, 0.022333661, 2.29476e-05, 2.5728676, 0.00052775240, 0.576639
3.21900, 0.00050815165, 0.022000210, 2.26708e-05, 2.5743287, 0.00052775240, 0.576639
3.22000, 0.00050834891, 0.021757729, 2.24387e-05, 2.5745132, 0.00052775240, 0.576639
3.22100, 0.00050864375, 0.021393035, 2.20904e-05, 2.5749061, 0.00052775240, 0.576639
3.22200, 0.00050884001, 0.021129491, 2.18537e-05, 2.5755518, 0.00052775240, 0.576639
3.22300, 0.00050908796, 0.020756634, 2.15431e-05, 2.5773017, 0.00052775240, 0.576639
3.22400, 0.00050934652, 0.020449957, 2.12414e-05, 2.5774181, 0.00052775240, 0.576639
3.22500, 0.00050954992, 0.020315431, 2.10318e-05, 2.5752823, 0.00052775240, 0.576639
3.22600, 0.00050981797, 0.019999012, 2.07189e-05, 2.5753925, 0.00052775240, 0.576639
3.22700, 0.00051003669, 0.019710800, 2.04546e-05, 2.5762317, 0.00052775240, 0.576639
3.22800, 0.00051027368, 0.019555960, 2.02115e-05, 2.5735471, 0.00052775240, 0.576639
3.22900, 0.00051047893, 0.019288953, 1.99648e-05, 2.5742223, 0.00052775240, 0.576639
3.23000, 0.00051078259, 0.018952265, 1.96161e-05, 2.5738571, 0.00052775240, 0.576639
3.23100, 0.00051098232, 0.018803861, 1.94054e-05, 2.5719931, 0.00052775240, 0.576639
3.23200, 0.00051125160, 0.018484144, 1.90911e-05, 2.5720813, 0.00052775240, 0.576639
3.23300, 0.00051146053, 0.018237410, 1.88475e-05, 2.5721309, 0.00052775240, 0.576639
