time(s), Phieff(Wb), Thetaeff(rad), Phipl(Wb), DelTheta(rad), Phiext(Wb), Thetaext(rad)
3.00000, 0.00049999851, 0.019326001, 2.34944e-05, 2.6653879, 0.00052132116, 0.575905
3.00100, 0.00050011250, 0.019127583, 2.33492e-05, 2.6671083, 0.00052132116, 0.575905
3.00200, 0.00050025627, 0.019071408, 2.32070e-05, 2.6655786, 0.00052132116, 0.575905
3.00300, 0.00050040426, 0.018781658, 2.30112e-05, 2.6685255, 0.00052132116, 0.575905
3.00400, 0.00050049284, 0.018832369, 2.29424e-05, 2.6658371, 0.00052132116, 0.575905
3.00500, 0.00050066818, 0.018609487, 2.27364e-05, 2.6669543, 0.00052132116, 0.575905
3.00600, 0.00050079391, 0.018396867, 2.25768e-05, 2.6688922, 0.00052132116, 0.575905
3.00700, 0.00050092501, 0.018370928, 2.24528e-05, 2.6669200, 0.00052132116, 0.575905
3.00800, 0.00050106844, 0.018211244, 2.22890e-05, 2.6674182, 0.00052132116, 0.575905
3.00900, 0.00050117909, 0.018033629, 2.21507e-05, 2.6689560, 0.00052132116, 0.575905
3.01000, 0.00050132086, 0.018000545, 2.20154e-05, 2.6668999, 0.00052132116, 0.575905
3.01100, 0.00050148601, 0.017844228, 2.18326e-05, 2.6669238, 0.00052132116, 0.575905
3.01200, 0.00050157368, 0.017726926, 2.17283e-05, 2.6676471, 0.00052132116, 0.575905
3.01300, 0.00050175559, 0.017646041, 2.15463e-05, 2.6657760, 0.00052132116, 0.575905
3.01400, 0.00050187589, 0.017449019, 2.13957e-05, 2.6675193, 0.00052132116, 0.575905
3.01500, 0.00050201957, 0.017411401, 2.12573e-05, 2.6654871, 0.00052132116, 0.575905
3.01600, 0.00050216373, 0.017287716, 2.11010e-05, 2.6651738, 0.00052132116, 0.575905
3.01700, 0.00050230181, 0.017128374, 2.09415e-05, 2.6658619, 0.00052132116, 0.575905
3.01800, 0.00050239298, 0.017086564, 2.08505e-05, 2.6648672, 0.00052132116, 0.575905
3.01900, 0.00050254762, 0.016928850, 2.06759e-05, 2.6652324, 0.00052132116, 0.575905
3.02000, 0.00050265740, 0.016723381, 2.05332e-05, 2.6674392, 0.00052132116, 0.575905
3.02100, 0.00050276965, 0.016712686, 2.04292e-05, 2.6653578, 0.00052132116, 0.575905
3.02200, 0.00050290592, 0.016457509, 2.02517e-05, 2.6681807, 0.00052132116, 0.575905
3.02300, 0.00050301656, 0.016322950, 2.01224e-05, 2.6689422, 0.00052132116, 0.575905
3.02400, 0.00050314105, 0.016297366, 2.00041e-05, 2.6669028, 0.00052132116, 0.575905
3.02500, 0.00050326417, 0.016043017, 1.98397e-05, 2.6699674, 0.00052132116, 0.575905
3.02600, 0.00050338034, 0.016031867, 1.97314e-05, 2.6678131, 0.00052132116, 0.575905
3.02700, 0.00050353490, 0.015946122, 1.95736e-05, 2.6664150, 0.00052132116, 0.575905
3.02800, 0.00050367411, 0.015720241, 1.93977e-05, 2.6688535, 0.00052132116, 0.575905
3.02900, 0.00050375860, 0.015735399, 1.93253e-05, 2.6665485, 0.00052132116, 0.575905
3.03000, 0.00050392835, 0.015537171, 1.91288e-05, 2.6675565, 0.00052132116, 0.575905
3.03100, 0.00050403272, 0.015417783, 1.90088e-05, 2.6680973, 0.00052132116, 0.575905
3.03200, 0.00050413274, 0.015456396, 1.89262e-05, 2.6649630, 0.00052132116, 0.575905
3.03300, 0.00050429555, 0.015246725, 1.87348e-05, 2.6662681, 0.00052132116, 0.575905
3.03400, 0.00050442150, 0.015065815, 1.85812e-05, 2.6679399, 0.00052132116, 0.575905
3.03500, 0.00050451172, 0.015057900, 1.84986e-05, 2.6659787, 0.00052132116, 0.575905
3.03600, 0.00050465569, 0.014942662, 1.83427e-05, 2.6656201, 0.00052132116, 0.575905
3.03700, 0.00050474681, 0.014745904, 1.82185e-05, 2.6683862, 0.00052132116, 0.575905
3.03800, 0.00050489450, 0.014778207, 1.80911e-05, 2.6641882, 0.00052132116, 0.575905
3.03900, 0.00050499700, 0.014484889, 1.79359e-05, 2.6691864, 0.00052132116, 0.575905
3.04000, 0.00050512511, 0.014517773, 1.78270e-05, 2.6652944, 0.00052132116, 0.575905
3.04100, 0.00050524474, 0.014360906, 1.76852e-05, 2.6664627, 0.00052132116, 0.575905
3.04200, 0.00050540965, 0.014168691, 1.74953e-05, 2.6674287, 0.00052132116, 0.575905
3.04300, 0.00050545240, 0.014122339, 1.74457e-05, 2.6677291, 0.00052132116, 0.575905
3.04400, 0.00050562656, 0.014033424, 1.72687e-05, 2.6658552, 0.00052132116, 0.575905
3.04500, 0.00050573323, 0.013819418, 1.71267e-05, 2.6688941, 0.00052132116, 0.575905
3.04600, 0.00050586488, 0.013871080, 1.70191e-05, 2.6641643, 0.00052132116, 0.575905
3.04700, 0.00050597374, 0.013658896, 1.68742e-05, 2.6672876, 0.00052132116, 0.575905
3.04800, 0.00050608462, 0.013514119, 1.67429e-05, 2.6684449, 0.00052132116, 0.575905
3.04900, 0.00050620841, 0.013540558, 1.66378e-05, 2.6644003, 0.00052132116, 0.575905
3.05000, 0.00050631398, 0.013376690, 1.65060e-05, 2.6663702, 0.00052132116, 0.575905
3.05100, 0.00050644030, 0.013228824, 1.63602e-05, 2.6672151, 0.00052132116, 0.575905
3.05200, 0.00050653947, 0.013156534, 1.62544e-05, 2.6667435, 0.00052132116, 0.575905
3.05300, 0.00050668862, 0.012923410, 1.60689e-05, 2.6695607, 0.00052132116, 0.575905
3.05400, 0.00050676490, 0.012914183, 1.59990e-05, 2.6676543, 0.00052132116, 0.575905
3.05500, 0.00050688855, 0.012718852, 1.58444e-05, 2.6701496, 0.00052132116, 0.575905
3.05600, 0.00050701298, 0.012567990, 1.57003e-05, 2.6711328, 0.00052132116, 0.575905
3.05700, 0.00050710794, 0.012601146, 1.56195e-05, 2.6678417, 0.00052132116, 0.575905
3.05800, 0.00050723577, 0.012391268, 1.54597e-05, 2.6704900, 0.00052132116, 0.575905
3.05900, 0.00050735989, 0.012255839, 1.53183e-05, 2.6711710, 0.00052132116, 0.575905
3.06000, 0.00050744377, 0.012280133, 1.52471e-05, 2.6681664, 0.00052132116, 0.575905
3.06100, 0.00050759941, 0.012118896, 1.50723e-05, 2.6686428, 0.00052132116, 0.575905
3.06200, 0.00050767303, 0.011990335, 1.49769e-05, 2.6707156, 0.00052132116, 0.575905
3.06300, 0.00050786364, 0.011900517, 1.47855e-05, 2.6680229, 0.00052132116, 0.575905
3.06400, 0.00050793290, 0.011718817, 1.46829e-05, 2.6719148, 0.00052132116, 0.575905
3.06500, 0.00050805091, 0.011749296, 1.45827e-05, 2.6675022, 0.00052132116, 0.575905
3.06600, 0.00050816509, 0.011585818, 1.44436e-05, 2.6694954, 0.00052132116, 0.575905
3.06700, 0.00050831824, 0.011362440, 1.42584e-05, 2.6720359, 0.00052132116, 0.575905
3.06800, 0.00050837460, 0.011399102, 1.42134e-05, 2.6694315, 0.00052132116, 0.575905
3.06900, 0.00050853110, 0.011251737, 1.40398e-05, 2.6696403, 0.00052132116, 0.575905
3.07000, 0.00050864587, 0.011048600, 1.38935e-05, 2.6727827, 0.00052132116, 0.575905
3.07100, 0.00050872902, 0.011048600, 1.38180e-05, 2.6702678, 0.00052132116, 0.575905
3.07200, 0.00050887919, 0.010852646, 1.36397e-05, 2.6723688, 0.00052132116, 0.575905
3.07300, 0.00050897363, 0.010725580, 1.35269e-05, 2.6738341, 0.00052132116, 0.575905
3.07400, 0.00050907441, 0.010697757, 1.34299e-05, 2.6715958, 0.00052132116, 0.575905
3.07500, 0.00050921457, 0.010438308, 1.32483e-05, 2.6761711, 0.00052132116, 0.575905
3.07600, 0.00050928729, 0.010409717, 1.31758e-05, 2.6749504, 0.00052132116, 0.575905
3.07700, 0.00050940486, 0.010409717, 1.30690e-05, 2.6712034, 0.00052132116, 0.575905
3.07800, 0.00050956480, 0.010183956, 1.28747e-05, 2.6743596, 0.00052132116, 0.575905
3.07900, 0.00050964314, 0.010195656, 1.28050e-05, 2.6715562, 0.00052132116, 0.575905
3.08000, 0.00050976172, 0.010048439, 1.26669e-05, 2.6729057, 0.00052132116, 0.575905
3.08100, 0.00050988364, 0.0099290935, 1.25308e-05, 2.6732929, 0.00052132116, 0.575905
3.08200, 0.00051000927, 0.0099290935, 1.24165e-05, 2.6691129, 0.00052132116, 0.575905
3.08300, 0.00051010398, 0.0097350981, 1.22884e-05, 2.6733754, 0.00052132116, 0.575905
3.08400, 0.00051026776, 0.0095994528, 1.21121e-05, 2.6727369, 0.00052132116, 0.575905
3.08500, 0.00051031645, 0.0095683560, 1.20618e-05, 2.6721575, 0.00052132116, 0.575905
3.08600, 0.00051045614, 0.0093732541, 1.18927e-05, 2.6750653, 0.00052132116, 0.575905
3.08700, 0.00051053820, 0.0092387479, 1.17901e-05, 2.6774414, 0.00052132116, 0.575905
3.08800, 0.00051067164, 0.0092387479, 1.16687e-05, 2.6727202, 0.00052132116, 0.575905
3.08900, 0.00051076172, 0.0090562990, 1.15465e-05, 2.6771925, 0.00052132116, 0.575905
3.09000, 0.00051089612, 0.0089703295, 1.14076e-05, 2.6755588, 0.00052132116, 0.575905
3.09100, 0.00051099414, 0.0088700987, 1.12957e-05, 2.6764314, 0.00052132116, 0.575905
3.09200, 0.00051111700, 0.0086936280, 1.11467e-05, 2.6793125, 0.00052132116, 0.575905
3.09300, 0.00051119388, 0.0087619219, 1.10921e-05, 2.6733658, 0.00052132116, 0.575905
3.09400, 0.00051134285, 0.0085693272, 1.09147e-05, 2.6761963, 0.00052132116, 0.575905
3.09500, 0.00051146398, 0.0084431972, 1.07778e-05, 2.6770566, 0.00052132116, 0.575905
3.09600, 0.00051154320, 0.0084784217, 1.07134e-05, 2.6724098, 0.00052132116, 0.575905
3.09700, 0.00051166318, 0.0083151544, 1.05704e-05, 2.6747754, 0.00052132116, 0.575905
3.09800, 0.00051177130, 0.0081705311, 1.04403e-05, 2.6772420, 0.00052132116, 0.575905
3.09900, 0.00051189907, 0.0081486162, 1.03202e-05, 2.6729581, 0.00052132116, 0.575905
3.10000, 0.00051198985, 0.0079636471, 1.01980e-05, 2.6778896, 0.00052132116, 0.575905
3.10100, 0.00051210927, 0.0079336520, 1.00817e-05, 2.6746867, 0.00052132116, 0.575905
3.10200, 0.00051223633, 0.0078581637, 9.95122e-06, 2.6727169, 0.00052132116, 0.575905
3.10300, 0.00051236214, 0.0076428289, 9.79218e-06, 2.6774891, 0.00052132116, 0.575905
3.10400, 0.00051243918, 0.0076817241, 9.72790e-06, 2.6728852, 0.00052132116, 0.575905
3.10500, 0.00051257528, 0.0075407624, 9.57568e-06, 2.6735599, 0.00052132116, 0.575905
3.10600, 0.00051268823, 0.0073160925, 9.42604e-06, 2.6796715, 0.00052132116, 0.575905
3.10700, 0.00051276982, 0.0073809819, 9.36316e-06, 2.6733606, 0.00052132116, 0.575905
3.10800, 0.00051292231, 0.0071679442, 9.18124e-06, 2.6769278, 0.00052132116, 0.575905
3.10900, 0.00051297646, 0.0070843012, 9.11385e-06, 2.6789262, 0.00052132116, 0.575905
3.11000, 0.00051307936, 0.0070843012, 9.02043e-06, 2.6741660, 0.00052132116, 0.575905
3.11100, 0.00051321761, 0.0069139795, 8.85819e-06, 2.6768620, 0.00052132116, 0.575905
3.11200, 0.00051328377, 0.0068620592, 8.78683e-06, 2.6765893, 0.00052132116, 0.575905
3.11300, 0.00051342035, 0.0068446645, 8.65958e-06, 2.6708515, 0.00052132116, 0.575905
3.11400, 0.00051349873, 0.0067038848, 8.55601e-06, 2.6754015, 0.00052132116, 0.575905
3.11500, 0.00051359146, 0.0066323741, 8.45812e-06, 2.6744287, 0.00052132116, 0.575905
3.11600, 0.00051370344, 0.0065963282, 8.34726e-06, 2.6712706, 0.00052132116, 0.575905
3.11700, 0.00051384570, 0.0063288589, 8.16209e-06, 2.6792219, 0.00052132116, 0.575905
3.11800, 0.00051390078, 0.0063851168, 8.12415e-06, 2.6730611, 0.00052132116, 0.575905
3.11900, 0.00051404740, 0.0061859763, 7.94828e-06, 2.6773126, 0.00052132116, 0.575905
3.12000, 0.00051413386, 0.0060594203, 7.84271e-06, 2.6804741, 0.00052132116, 0.575905
3.12100, 0.00051422201, 0.0061278907, 7.77397e-06, 2.6724889, 0.00052132116, 0.575905
3.12200, 0.00051435448, 0.0059100273, 7.60820e-06, 2.6785238, 0.00052132116, 0.575905
3.12300, 0.00051444540, 0.0057256129, 7.48926e-06, 2.6844575, 0.00052132116, 0.575905
3.12400, 0.00051455693, 0.0058082980, 7.40419e-06, 2.6732547, 0.00052132116, 0.575905
3.12500, 0.00051464613, 0.0055779661, 7.27324e-06, 2.6835444, 0.00052132116, 0.575905
3.12600, 0.00051471755, 0.0056205466, 7.21624e-06, 2.6769493, 0.00052132116, 0.575905
3.12700, 0.00051483288, 0.0055242786, 7.09190e-06, 2.6763628, 0.00052132116, 0.575905
3.12800, 0.00051497232, 0.0053599915, 6.92871e-06, 2.6798165, 0.00052132116, 0.575905
3.12900, 0.00051500721, 0.0054263030, 6.91082e-06, 2.6732171, 0.00052132116, 0.575905
3.13000, 0.00051515979, 0.0052476097, 6.73368e-06, 2.6765263, 0.00052132116, 0.575905
3.13100, 0.00051525018, 0.0050978116, 6.61992e-06, 2.6816099, 0.00052132116, 0.575905
3.13200, 0.00051537138, 0.0052248435, 6.53664e-06, 2.6648042, 0.00052132116, 0.575905
3.13300, 0.00051546410, 0.0050152978, 6.40964e-06, 2.6734049, 0.00052132116, 0.575905
3.13400, 0.00051553985, 0.0049071708, 6.31462e-06, 2.6776841, 0.00052132116, 0.575905
3.13500, 0.00051569477, 0.0048828172, 6.16861e-06, 2.6691945, 0.00052132116, 0.575905
3.13600, 0.00051575622, 0.0047966070, 6.09456e-06, 2.6715944, 0.00052132116, 0.575905
3.13700, 0.00051588506, 0.0046579107, 5.94636e-06, 2.6742065, 0.00052132116, 0.575905
3.13800, 0.00051594821, 0.0046961429, 5.89926e-06, 2.6659043, 0.00052132116, 0.575905
3.13900, 0.00051608369, 0.0044215783, 5.71579e-06, 2.6793654, 0.00052132116, 0.575905
3.14000, 0.00051612732, 0.0044350382, 5.68335e-06, 2.6733172, 0.00052132116, 0.575905
3.14100, 0.00051624434, 0.0043261861, 5.55227e-06, 2.6744917, 0.00052132116, 0.575905
3.14200, 0.00051636891, 0.0041718800, 5.40603e-06, 2.6786149, 0.00052132116, 0.575905
3.14300, 0.00051640530, 0.0041861427, 5.37728e-06, 2.6739843, 0.00052132116, 0.575905
3.14400, 0.00051657418, 0.0041432069, 5.21306e-06, 2.6651728, 0.00052132116, 0.575905
3.14500, 0.00051661446, 0.0039818157, 5.14048e-06, 2.6774066, 0.00052132116, 0.575905
3.14600, 0.00051672790, 0.0039967569, 5.04072e-06, 2.6666439, 0.00052132116, 0.575905
3.14700, 0.00051684662, 0.0039062523, 4.91169e-06, 2.6660292, 0.00052132116, 0.575905
3.14800, 0.00051691668, 0.0037505617, 4.81552e-06, 2.6748765, 0.00052132116, 0.575905
3.14900, 0.00051703913, 0.0037822125, 4.70982e-06, 2.6615598, 0.00052132116, 0.575905
3.15000, 0.00051708062, 0.0035881216, 4.63143e-06, 2.6771748, 0.00052132116, 0.575905
3.15100, 0.00051720568, 0.0035379357, 4.50379e-06, 2.6726387, 0.00052132116, 0.575905
3.15200, 0.00051727541, 0.0035040791, 4.43741e-06, 2.6676266, 0.00052132116, 0.575905
3.15300, 0.00051741025, 0.0032754918, 4.26607e-06, 2.6798866, 0.00052132116, 0.575905
3.15400, 0.00051743622, 0.0033116860, 4.24656e-06, 2.6751545, 0.00052132116, 0.575905
3.15500, 0.00051756317, 0.0031644255, 4.09957e-06, 2.6796482, 0.00052132116, 0.575905
3.15600, 0.00051763928, 0.0030881630, 4.01499e-06, 2.6804998, 0.00052132116, 0.575905
3.15700, 0.00051771608, 0.0030881630, 3.94776e-06, 2.6709898, 0.00052132116, 0.575905
3.15800, 0.00051781422, 0.0029296887, 3.82554e-06, 2.6796377, 0.00052132116, 0.575905
3.15900, 0.00051791048, 0.0028049632, 3.70475e-06, 2.6894510, 0.00052132116, 0.575905
3.16000, 0.00051795956, 0.0028887119, 3.68562e-06, 2.6681764, 0.00052132116, 0.575905
3.16100, 0.00051809003, 0.0026966222, 3.51853e-06, 2.6835344, 0.00052132116, 0.575905
3.16200, 0.00051813068, 0.0026520467, 3.47829e-06, 2.6808531, 0.00052132116, 0.575905
3.16300, 0.00051824222, 0.0026520467, 3.37646e-06, 2.6675646, 0.00052132116, 0.575905
3.16400, 0.00051833794, 0.0024657000, 3.24978e-06, 2.6825717, 0.00052132116, 0.575905
3.16500, 0.00051836901, 0.0024657000, 3.22079e-06, 2.6790927, 0.00052132116, 0.575905
3.16600, 0.00051850000, 0.0024168694, 3.09259e-06, 2.6683028, 0.00052132116, 0.575905
3.16700, 0.00051855387, 0.0022902426, 3.01529e-06, 2.6819227, 0.00052132116, 0.575905
3.16800, 0.00051865054, 0.0023920804, 2.94258e-06, 2.6570518, 0.00052132116, 0.575905
3.16900, 0.00051870411, 0.0022107877, 2.85386e-06, 2.6800263, 0.00052132116, 0.575905
3.17000, 0.00051885330, 0.0020716023, 2.68957e-06, 2.6813285, 0.00052132116, 0.575905
3.17100, 0.00051888772, 0.0020716023, 2.66534e-06, 2.6699941, 0.00052132116, 0.575905
3.17200, 0.00051902031, 0.0019834081, 2.52262e-06, 2.6677253, 0.00052132116, 0.575905
3.17300, 0.00051905353, 0.0018269814, 2.45462e-06, 2.6972330, 0.00052132116, 0.575905
3.17400, 0.00051918001, 0.0018593199, 2.34845e-06, 2.6667883, 0.00052132116, 0.575905
3.17500, 0.00051926546, 0.0017263351, 2.23874e-06, 2.6828563, 0.00052132116, 0.575905
3.17600, 0.00051930473, 0.0017263351, 2.20921e-06, 2.6691887, 0.00052132116, 0.575905
3.17700, 0.00051939970, 0.0016558425, 2.11157e-06, 2.6624348, 0.00052132116, 0.575905
3.17800, 0.00051950549, 0.0015440810, 1.98848e-06, 2.6699712, 0.00052132116, 0.575905
3.17900, 0.00051954258, 0.0015440810, 1.95281e-06, 2.6643331, 0.00052132116, 0.575905
3.18000, 0.00051967290, 0.0014648439, 1.82061e-06, 2.6512935, 0.00052132116, 0.575905
3.18100, 0.00051975618, 0.0013810680, 1.73063e-06, 2.6487930, 0.00052132116, 0.575905
3.18200, 0.00051982987, 0.0013810680, 1.65594e-06, 2.6401594, 0.00052132116, 0.575905
3.18300, 0.00051992909, 0.0012448779, 1.53221e-06, 2.6587727, 0.00052132116, 0.575905
3.18400, 0.00051999150, 0.0010918301, 1.45200e-06, 2.6762970, 0.00052132116, 0.575905
3.18500, 0.00052008007, 0.0010918301, 1.36663e-06, 2.6577633, 0.00052132116, 0.575905
3.18600, 0.00052018705, 0.00097656250, 1.24445e-06, 2.6654027, 0.00052132116, 0.575905
3.18700, 0.00052025795, 0.00077204045, 1.14512e-06, 2.7090681, 0.00052132116, 0.575905
3.18800, 0.00052031311, 0.00091349060, 1.11367e-06, 2.6506021, 0.00052132116, 0.575905
3.18900, 0.00052042215, 0.00059801998, 9.68780e-07, 2.7077129, 0.00052132116, 0.575905
3.19000, 0.00052048982, 0.00059801998, 8.84361e-07, 2.7414520, 0.00052132116, 0.575905
3.19100, 0.00052056453, 0.00059801998, 8.12405e-07, 2.7167590, 0.00052132116, 0.575905
3.19200, 0.00052067941, 0.00048828125, 6.77464e-07, 2.7632363, 0.00052132116, 0.575905
3.19300, 0.00052069053, 0.00048828125, 6.80775e-07, 2.7032249, 0.00052132116, 0.575905
3.19400, 0.00052082614, 0.00048828125, 5.23313e-07, 2.7590244, 0.00052132116, 0.575905
3.19500, 0.00052090746, 0.0000000, 4.29855e-07, 2.8142645, 0.00052132116, 0.575905
3.19600, 0.00052096385, 0.00048828125, 4.00873e-07, 2.6188672, 0.00052132116, 0.575905
3.19700, 0.00052102941, 0.0000000, 3.05914e-07, 2.7837789, 0.00052132116, 0.575905
3.19800, 0.00052118588, 0.0000000, 1.38725e-07, 2.8658731, 0.00052132116, 0.575905
3.19900, 0.00052123072, 0.0000000, 1.18485e-07, 2.3869207, 0.00052132116, 0.575905
3.20000, 0.00052132116, -0.0000000, 0.00000, -2.1991150, 0.00052132116, 0.575905
3.20100, 0.00052139780, -0.0000000, 8.40461e-08, -0.47539024, 0.00052132116, 0.575905
3.20200, 0.00052150513, -0.0000000, 1.95890e-07, -0.40313664, 0.00052132116, 0.575905
3.20300, 0.00052156111, -0.0000000, 2.81978e-07, -0.60555644, 0.00052132116, 0.575905
3.20400, 0.00052164110, -0.0000000, 3.51213e-07, -0.47778314, 0.00052132116, 0.575905
3.20500, 0.00052171727, -0.00048828125, 4.46337e-07, -0.53161024, 0.00052132116, 0.575905
3.20600, 0.00052184379, -0.00048828125, 5.89771e-07, -0.53450714, 0.00052132116, 0.575905
3.20700, 0.00052190179, -0.00048828125, 6.41402e-07, -0.49152544, 0.00052132116, 0.575905
3.20800, 0.00052195709, -0.00059801998, 6.98394e-07, -0.47884824, 0.00052132116, 0.575905
3.20900, 0.00052209504, -0.00077204045, 8.72250e-07, -0.53232074, 0.00052132116, 0.575905
3.21000, 0.00052214137, -0.00059801998, 8.84541e-07, -0.43648844, 0.00052132116, 0.575905
3.21100, 0.00052228322, -0.00091349060, 1.06620e-06, -0.49851584, 0.00052132116, 0.575905
3.21200, 0.00052229356, -0.00077204045, 1.06332e-06, -0.46937524, 0.00052132116, 0.575905
3.21300, 0.00052240045, -0.00097656250, 1.19762e-06, -0.50120544, 0.00052132116, 0.575905
3.21400, 0.00052251585, -0.00097656250, 1.31079e-06, -0.47699134, 0.00052132116, 0.575905
3.21500, 0.00052255363, -0.0010918301, 1.34913e-06, -0.47186594, 0.00052132116, 0.575905
3.21600, 0.00052267874, -0.0010918301, 1.46629e-06, -0.44043954, 0.00052132116, 0.575905
3.21700, 0.00052274409, -0.0012448779, 1.56381e-06, -0.48077024, 0.00052132116, 0.575905
3.21800, 0.00052284378, -0.0012448779, 1.64854e-06, -0.44641604, 0.00052132116, 0.575905
3.21900, 0.00052291867, -0.0013810680, 1.74879e-06, -0.47211314, 0.00052132116, 0.575905
3.22000, 0.00052299490, -0.0014648439, 1.84634e-06, -0.48899864, 0.00052132116, 0.575905
3.22100, 0.00052306146, -0.0014648439, 1.89613e-06, -0.46138824, 0.00052132116, 0.575905
3.22200, 0.00052318340, -0.0015822123, 2.04394e-06, -0.47807304, 0.00052132116, 0.575905
3.22300, 0.00052326264, -0.0017263351, 2.13673e-06, -0.48409654, 0.00052132116, 0.575905
3.22400, 0.00052331716, -0.0016558425, 2.17712e-06, -0.46403984, 0.00052132116, 0.575905
3.22500, 0.00052341784, -0.0018269814, 2.30014e-06, -0.47710024, 0.00052132116, 0.575905
3.22600, 0.00052351996, -0.0018593199, 2.40608e-06, -0.47147774, 0.00052132116, 0.575905
3.22700, 0.00052354873, -0.0018593199, 2.43047e-06, -0.46485764, 0.00052132116, 0.575905
3.22800, 0.00052364551, -0.0019834081, 2.54395e-06, -0.47196524, 0.00052132116, 0.575905
3.22900, 0.00052370863, -0.0019223655, 2.59189e-06, -0.45320634, 0.00052132116, 0.575905
3.23000, 0.00052379055, -0.0020132356, 2.68923e-06, -0.46059144, 0.00052132116, 0.575905
