time(s), Phieff(Wb), Thetaeff(rad), Phipl(Wb), DelTheta(rad), Phiext(Wb), Thetaext(rad)
3.00000, 0.00050028320, 0.0019834081, 2.92171e-05, 3.1759545, 0.000529482, 0.00000
3.00100, 0.00050045748, 0.0019223655, 2.90416e-05, 3.1748950, 0.000529482, 0.00000
3.00200, 0.00050068639, 0.0019834081, 2.88139e-05, 3.1761886, 0.000529482, 0.00000
3.00300, 0.00050085102, 0.0019223655, 2.86483e-05, 3.1753642, 0.000529482, 0.00000
3.00400, 0.00050102128, 0.0019834081, 2.84793e-05, 3.1766912, 0.000529482, 0.00000
3.00500, 0.00050125474, 0.0019223655, 2.82447e-05, 3.1757380, 0.000529482, 0.00000
3.00600, 0.00050137447, 0.0019223655, 2.81254e-05, 3.1762468, 0.000529482, 0.00000
3.00700, 0.00050160778, 0.0018593199, 2.78913e-05, 3.1756140, 0.000529482, 0.00000
3.00800, 0.00050178160, 0.0019834081, 2.77190e-05, 3.1772052, 0.000529482, 0.00000
3.00900, 0.00050195399, 0.0018269814, 2.75444e-05, 3.1751467, 0.000529482, 0.00000
3.01000, 0.00050213183, 0.0018269814, 2.73668e-05, 3.1755006, 0.000529482, 0.00000
3.01100, 0.00050236927, 0.0019223655, 2.71308e-05, 3.1770884, 0.000529482, 0.00000
3.01200, 0.00050249300, 0.0016558425, 2.70029e-05, 3.1728045, 0.000529482, 0.00000
3.01300, 0.00050275054, 0.0018269814, 2.67481e-05, 3.1759264, 0.000529482, 0.00000
3.01400, 0.00050288778, 0.0017263351, 2.66093e-05, 3.1743762, 0.000529482, 0.00000
3.01500, 0.00050303688, 0.0017263351, 2.64597e-05, 3.1739160, 0.000529482, 0.00000
3.01600, 0.00050327125, 0.0017263351, 2.62262e-05, 3.1750251, 0.000529482, 0.00000
3.01700, 0.00050345204, 0.0016558425, 2.60442e-05, 3.1737806, 0.000529482, 0.00000
3.01800, 0.00050361994, 0.0015822123, 2.58757e-05, 3.1732060, 0.000529482, 0.00000
3.01900, 0.00050385431, 0.0017263351, 2.56434e-05, 3.1756903, 0.000529482, 0.00000
3.02000, 0.00050398379, 0.0017263351, 2.55134e-05, 3.1752073, 0.000529482, 0.00000
3.02100, 0.00050420961, 0.0016558425, 2.52868e-05, 3.1744858, 0.000529482, 0.00000
3.02200, 0.00050441072, 0.0017263351, 2.50869e-05, 3.1760003, 0.000529482, 0.00000
3.02300, 0.00050450302, 0.0015822123, 2.49930e-05, 3.1742369, 0.000529482, 0.00000
3.02400, 0.00050479776, 0.0017263351, 2.47000e-05, 3.1764142, 0.000529482, 0.00000
3.02500, 0.00050490257, 0.0017263351, 2.45951e-05, 3.1763932, 0.000529482, 0.00000
3.02600, 0.00050509956, 0.0016558425, 2.43972e-05, 3.1755106, 0.000529482, 0.00000
3.02700, 0.00050530323, 0.0017263351, 2.41951e-05, 3.1774394, 0.000529482, 0.00000
3.02800, 0.00050550117, 0.0016558425, 2.39960e-05, 3.1763074, 0.000529482, 0.00000
3.02900, 0.00050567658, 0.0015440810, 2.38190e-05, 3.1745292, 0.000529482, 0.00000
3.03000, 0.00050582027, 0.0016558425, 2.36770e-05, 3.1766621, 0.000529482, 0.00000
3.03100, 0.00050602341, 0.0015822123, 2.34728e-05, 3.1755497, 0.000529482, 0.00000
3.03200, 0.00050619420, 0.0015440810, 2.33017e-05, 3.1753184, 0.000529482, 0.00000
3.03300, 0.00050640449, 0.0015440810, 2.30909e-05, 3.1748459, 0.000529482, 0.00000
3.03400, 0.00050651836, 0.0014648439, 2.29768e-05, 3.1746527, 0.000529482, 0.00000
3.03500, 0.00050675779, 0.0015440810, 2.27385e-05, 3.1762253, 0.000529482, 0.00000
3.03600, 0.00050693926, 0.0015440810, 2.25572e-05, 3.1765782, 0.000529482, 0.00000
3.03700, 0.00050705177, 0.0014648439, 2.24438e-05, 3.1755792, 0.000529482, 0.00000
3.03800, 0.00050730220, 0.0015440810, 2.21937e-05, 3.1761991, 0.000529482, 0.00000
3.03900, 0.00050744745, 0.0015822123, 2.20502e-05, 3.1784326, 0.000529482, 0.00000
3.04000, 0.00050758943, 0.0015440810, 2.19068e-05, 3.1768452, 0.000529482, 0.00000
3.04100, 0.00050781119, 0.0015440810, 2.16858e-05, 3.1779658, 0.000529482, 0.00000
3.04200, 0.00050790463, 0.0015440810, 2.15917e-05, 3.1772277, 0.000529482, 0.00000
3.04300, 0.00050812583, 0.0015440810, 2.13710e-05, 3.1780469, 0.000529482, 0.00000
3.04400, 0.00050830093, 0.0015440810, 2.11959e-05, 3.1782052, 0.000529482, 0.00000
3.04500, 0.00050842618, 0.0013810680, 2.10690e-05, 3.1762225, 0.000529482, 0.00000
3.04600, 0.00050864358, 0.0013810680, 2.08518e-05, 3.1766574, 0.000529482, 0.00000
3.04700, 0.00050879554, 0.0014648439, 2.07005e-05, 3.1776416, 0.000529482, 0.00000
3.04800, 0.00050895311, 0.0013372133, 2.05408e-05, 3.1749365, 0.000529482, 0.00000
3.04900, 0.00050913754, 0.0013810680, 2.03578e-05, 3.1770369, 0.000529482, 0.00000
3.05000, 0.00050932028, 0.0013810680, 2.01755e-05, 3.1777865, 0.000529482, 0.00000
3.05100, 0.00050945317, 0.0013372133, 2.00413e-05, 3.1761367, 0.000529482, 0.00000
3.05200, 0.00050968365, 0.0013810680, 1.98126e-05, 3.1787583, 0.000529482, 0.00000
3.05300, 0.00050983491, 0.0013810680, 1.96605e-05, 3.1777760, 0.000529482, 0.00000
3.05400, 0.00050992267, 0.0013810680, 1.95733e-05, 3.1785990, 0.000529482, 0.00000
3.05500, 0.00051016795, 0.0013810680, 1.93280e-05, 3.1788341, 0.000529482, 0.00000
3.05600, 0.00051026458, 0.0014648439, 1.92327e-05, 3.1806618, 0.000529482, 0.00000
3.05700, 0.00051046259, 0.0013372133, 1.90325e-05, 3.1779572, 0.000529482, 0.00000
3.05800, 0.00051065134, 0.0014648439, 1.88459e-05, 3.1810533, 0.000529482, 0.00000
3.05900, 0.00051073832, 0.0013372133, 1.87566e-05, 3.1780016, 0.000529482, 0.00000
3.06000, 0.00051094200, 0.0013372133, 1.85526e-05, 3.1777550, 0.000529482, 0.00000
3.06100, 0.00051112092, 0.0013372133, 1.83743e-05, 3.1787960, 0.000529482, 0.00000
3.06200, 0.00051120691, 0.0011451211, 1.82853e-05, 3.1743600, 0.000529482, 0.00000
3.06300, 0.00051145405, 0.0011451211, 1.80391e-05, 3.1761066, 0.000529482, 0.00000
3.06400, 0.00051157845, 0.0011451211, 1.79138e-05, 3.1747777, 0.000529482, 0.00000
3.06500, 0.00051169486, 0.0010918301, 1.77959e-05, 3.1723515, 0.000529482, 0.00000
3.06600, 0.00051188112, 0.0011451211, 1.76111e-05, 3.1750533, 0.000529482, 0.00000
3.06700, 0.00051201886, 0.0010918301, 1.74730e-05, 3.1745569, 0.000529482, 0.00000
3.06800, 0.00051217515, 0.0010918301, 1.73165e-05, 3.1743848, 0.000529482, 0.00000
3.06900, 0.00051235727, 0.0011451211, 1.71352e-05, 3.1758987, 0.000529482, 0.00000
3.07000, 0.00051249761, 0.0010918301, 1.69941e-05, 3.1747920, 0.000529482, 0.00000
3.07100, 0.00051263917, 0.0011451211, 1.68545e-05, 3.1781518, 0.000529482, 0.00000
3.07200, 0.00051284198, 0.0010918301, 1.66495e-05, 3.1747557, 0.000529482, 0.00000
3.07300, 0.00051290444, 0.0010918301, 1.65873e-05, 3.1752402, 0.000529482, 0.00000
3.07400, 0.00051313219, 0.0010918301, 1.63599e-05, 3.1760947, 0.000529482, 0.00000
3.07500, 0.00051326835, 0.0010918301, 1.62243e-05, 3.1771700, 0.000529482, 0.00000
3.07600, 0.00051339237, 0.00091349060, 1.60972e-05, 3.1717049, 0.000529482, 0.00000
3.07700, 0.00051358298, 0.00097656250, 1.59076e-05, 3.1738955, 0.000529482, 0.00000
3.07800, 0.00051370230, 0.00097656250, 1.57880e-05, 3.1734587, 0.000529482, 0.00000
3.07900, 0.00051385190, 0.00091349060, 1.56370e-05, 3.1707913, 0.000529482, 0.00000
3.08000, 0.00051400227, 0.00097656250, 1.54879e-05, 3.1735026, 0.000529482, 0.00000
3.08100, 0.00051413562, 0.00091349060, 1.53533e-05, 3.1710731, 0.000529482, 0.00000
3.08200, 0.00051424896, 0.00091349060, 1.52402e-05, 3.1717116, 0.000529482, 0.00000
3.08300, 0.00051444504, 0.00091349060, 1.50441e-05, 3.1718866, 0.000529482, 0.00000
3.08400, 0.00051453763, 0.00077204045, 1.49507e-05, 3.1701590, 0.000529482, 0.00000
3.08500, 0.00051470876, 0.00091349060, 1.47803e-05, 3.1719991, 0.000529482, 0.00000
3.08600, 0.00051488432, 0.00077204045, 1.46044e-05, 3.1714422, 0.000529482, 0.00000
3.08700, 0.00051495690, 0.00077204045, 1.45306e-05, 3.1686155, 0.000529482, 0.00000
3.08800, 0.00051516802, 0.00077204045, 1.43208e-05, 3.1719367, 0.000529482, 0.00000
3.08900, 0.00051529313, 0.00077204045, 1.41952e-05, 3.1709425, 0.000529482, 0.00000
3.09000, 0.00051539152, 0.00077204045, 1.40962e-05, 3.1696231, 0.000529482, 0.00000
3.09100, 0.00051560981, 0.00077204045, 1.38781e-05, 3.1702677, 0.000529482, 0.00000
3.09200, 0.00051568762, 0.00077204045, 1.38007e-05, 3.1713731, 0.000529482, 0.00000
3.09300, 0.00051582655, 0.00077204045, 1.36609e-05, 3.1693727, 0.000529482, 0.00000
3.09400, 0.00051601047, 0.00077204045, 1.34781e-05, 3.1722938, 0.000529482, 0.00000
3.09500, 0.00051608108, 0.00059801998, 1.34062e-05, 3.1691543, 0.000529482, 0.00000
3.09600, 0.00051628431, 0.00077204045, 1.32032e-05, 3.1700555, 0.000529482, 0.00000
3.09700, 0.00051641016, 0.00077204045, 1.30783e-05, 3.1725446, 0.000529482, 0.00000
3.09800, 0.00051652247, 0.00059801998, 1.29639e-05, 3.1671435, 0.000529482, 0.00000
3.09900, 0.00051668347, 0.00077204045, 1.28044e-05, 3.1713821, 0.000529482, 0.00000
3.10000, 0.00051686767, 0.00059801998, 1.26200e-05, 3.1710679, 0.000529482, 0.00000
3.10100, 0.00051693903, 0.00059801998, 1.25481e-05, 3.1697466, 0.000529482, 0.00000
3.10200, 0.00051713156, 0.00077204045, 1.23565e-05, 3.1724378, 0.000529482, 0.00000
3.10300, 0.00051730583, 0.00077204045, 1.21829e-05, 3.1743561, 0.000529482, 0.00000
3.10400, 0.00051739350, 0.00077204045, 1.20949e-05, 3.1736561, 0.000529482, 0.00000
3.10500, 0.00051760374, 0.00091349060, 1.18870e-05, 3.1794039, 0.000529482, 0.00000
3.10600, 0.00051770242, 0.00077204045, 1.17866e-05, 3.1756207, 0.000529482, 0.00000
3.10700, 0.00051783546, 0.00077204045, 1.16545e-05, 3.1780569, 0.000529482, 0.00000
3.10800, 0.00051802492, 0.00077204045, 1.14652e-05, 3.1787211, 0.000529482, 0.00000
3.10900, 0.00051809537, 0.00077204045, 1.13944e-05, 3.1780311, 0.000529482, 0.00000
3.11000, 0.00051824865, 0.00077204045, 1.12409e-05, 3.1777455, 0.000529482, 0.00000
3.11100, 0.00051840026, 0.00077204045, 1.10900e-05, 3.1797196, 0.000529482, 0.00000
3.11200, 0.00051851268, 0.00059801998, 1.09759e-05, 3.1757456, 0.000529482, 0.00000
3.11300, 0.00051866826, 0.00077204045, 1.08215e-05, 3.1789967, 0.000529482, 0.00000
3.11400, 0.00051881318, 0.00077204045, 1.06763e-05, 3.1785881, 0.000529482, 0.00000
3.11500, 0.00051892874, 0.00059801998, 1.05587e-05, 3.1732270, 0.000529482, 0.00000
3.11600, 0.00051911448, 0.00077204045, 1.03749e-05, 3.1788670, 0.000529482, 0.00000
3.11700, 0.00051924106, 0.00059801998, 1.02468e-05, 3.1749798, 0.000529482, 0.00000
3.11800, 0.00051937234, 0.00059801998, 1.01154e-05, 3.1748549, 0.000529482, 0.00000
3.11900, 0.00051956150, 0.00077204045, 9.92927e-06, 3.1831209, 0.000529482, 0.00000
3.12000, 0.00051972408, 0.00077204045, 9.76616e-06, 3.1821858, 0.000529482, 0.00000
3.12100, 0.00051984422, 0.00077204045, 9.64621e-06, 3.1829249, 0.000529482, 0.00000
3.12200, 0.00052001670, 0.00059801998, 9.47289e-06, 3.1811797, 0.000529482, 0.00000
3.12300, 0.00052011462, 0.00077204045, 9.37559e-06, 3.1829669, 0.000529482, 0.00000
3.12400, 0.00052032976, 0.00059801998, 9.16007e-06, 3.1825005, 0.000529482, 0.00000
3.12500, 0.00052046369, 0.00077204045, 9.02705e-06, 3.1851279, 0.000529482, 0.00000
3.12600, 0.00052052697, 0.00059801998, 8.96104e-06, 3.1778208, 0.000529482, 0.00000
3.12700, 0.00052077443, 0.00077204045, 8.71595e-06, 3.1849667, 0.000529482, 0.00000
3.12800, 0.00052084343, 0.00059801998, 8.64675e-06, 3.1845938, 0.000529482, 0.00000
3.12900, 0.00052102983, 0.00059801998, 8.45815e-06, 3.1787798, 0.000529482, 0.00000
3.13000, 0.00052113538, 0.00059801998, 8.35401e-06, 3.1832520, 0.000529482, 0.00000
3.13100, 0.00052131241, 0.00059801998, 8.17664e-06, 3.1826998, 0.000529482, 0.00000
3.13200, 0.00052142194, 0.00048828125, 8.06499e-06, 3.1761061, 0.000529482, 0.00000
3.13300, 0.00052157359, 0.00059801998, 7.91516e-06, 3.1824886, 0.000529482, 0.00000
3.13400, 0.00052165185, 0.00059801998, 7.83652e-06, 3.1814520, 0.000529482, 0.00000
3.13500, 0.00052186698, 0.00059801998, 7.62294e-06, 3.1867043, 0.000529482, 0.00000
3.13600, 0.00052203224, 0.00059801998, 7.45743e-06, 3.1864859, 0.000529482, 0.00000
3.13700, 0.00052211040, 0.00048828125, 7.37763e-06, 3.1816079, 0.000529482, 0.00000
3.13800, 0.00052227956, 0.00059801998, 7.21127e-06, 3.1906163, 0.000529482, 0.00000
3.13900, 0.00052247312, 0.00059801998, 7.01712e-06, 3.1896636, 0.000529482, 0.00000
3.14000, 0.00052254445, 0.00048828125, 6.94408e-06, 3.1845152, 0.000529482, 0.00000
3.14100, 0.00052271909, 0.00048828125, 6.76909e-06, 3.1839444, 0.000529482, 0.00000
3.14200, 0.00052284938, 0.00048828125, 6.63918e-06, 3.1856147, 0.000529482, 0.00000
3.14300, 0.00052294459, 0.00048828125, 6.54132e-06, 3.1758286, 0.000529482, 0.00000
3.14400, 0.00052314591, 0.00048828125, 6.34181e-06, 3.1836645, 0.000529482, 0.00000
3.14500, 0.00052324528, 0.00048828125, 6.24200e-06, 3.1823131, 0.000529482, 0.00000
3.14600, 0.00052335392, 0.00048828125, 6.13172e-06, 3.1756622, 0.000529482, 0.00000
3.14700, 0.00052354999, 0.00048828125, 5.93705e-06, 3.1824314, 0.000529482, 0.00000
3.14800, 0.00052360716, 0.0000000, 5.87809e-06, 3.1744100, 0.000529482, 0.00000
3.14900, 0.00052376514, 0.00048828125, 5.72077e-06, 3.1782514, 0.000529482, 0.00000
3.15000, 0.00052387950, 0.00048828125, 5.60643e-06, 3.1786448, 0.000529482, 0.00000
3.15100, 0.00052402410, 0.0000000, 5.46023e-06, 3.1704261, 0.000529482, 0.00000
3.15200, 0.00052418595, 0.00048828125, 5.29997e-06, 3.1797311, 0.000529482, 0.00000
3.15300, 0.00052428650, 0.00048828125, 5.19925e-06, 3.1791922, 0.000529482, 0.00000
3.15400, 0.00052440726, 0.0000000, 5.07694e-06, 3.1706120, 0.000529482, 0.00000
3.15500, 0.00052456296, 0.0000000, 4.92291e-06, 3.1808049, 0.000529482, 0.00000
3.15600, 0.00052469588, 0.0000000, 4.78958e-06, 3.1792380, 0.000529482, 0.00000
3.15700, 0.00052478476, 0.0000000, 4.70094e-06, 3.1807896, 0.000529482, 0.00000
3.15800, 0.00052493956, 0.0000000, 4.54611e-06, 3.1813995, 0.000529482, 0.00000
3.15900, 0.00052502714, 0.0000000, 4.45890e-06, 3.1837346, 0.000529482, 0.00000
3.16000, 0.00052514477, 0.0000000, 4.34045e-06, 3.1796996, 0.000529482, 0.00000
3.16100, 0.00052530092, 0.0000000, 4.18533e-06, 3.1863028, 0.000529482, 0.00000
3.16200, 0.00052533253, 0.0000000, 4.15046e-06, 3.1628954, 0.000529482, 0.00000
3.16300, 0.00052554692, 0.0000000, 3.93792e-06, 3.1790649, 0.000529482, 0.00000
3.16400, 0.00052564757, 0.0000000, 3.83742e-06, 3.1807095, 0.000529482, 0.00000
3.16500, 0.00052568942, 0.0000000, 3.79338e-06, 3.1616742, 0.000529482, 0.00000
3.16600, 0.00052588654, 0.0000000, 3.59648e-06, 3.1648623, 0.000529482, 0.00000
3.16700, 0.00052594104, 0.0000000, 3.54270e-06, 3.1723296, 0.000529482, 0.00000
3.16800, 0.00052607897, 0.0000000, 3.40444e-06, 3.1697976, 0.000529482, 0.00000
3.16900, 0.00052620683, 0.0000000, 3.27778e-06, 3.1810543, 0.000529482, 0.00000
3.17000, 0.00052629533, 0.0000000, 3.18887e-06, 3.1782653, 0.000529482, 0.00000
3.17100, 0.00052643268, 0.0000000, 3.05082e-06, 3.1725651, 0.000529482, 0.00000
3.17200, 0.00052657969, 0.0000000, 2.90589e-06, 3.1908280, 0.000529482, 0.00000
3.17300, 0.00052665557, 0.0000000, 2.82782e-06, 3.1724717, 0.000529482, 0.00000
3.17400, 0.00052675154, 0.0000000, 2.73226e-06, 3.1773216, 0.000529482, 0.00000
3.17500, 0.00052689705, 0.0000000, 2.58655e-06, 3.1764061, 0.000529482, 0.00000
3.17600, 0.00052695668, 0.0000000, 2.52617e-06, 3.1666524, 0.000529482, 0.00000
3.17700, 0.00052711971, 0.0000000, 2.36330e-06, 3.1699435, 0.000529482, 0.00000
3.17800, 0.00052719638, 0.0000000, 2.28679e-06, 3.1729662, 0.000529482, 0.00000
3.17900, 0.00052728460, 0.0000000, 2.19772e-06, 3.1574141, 0.000529482, 0.00000
3.18000, 0.00052740576, 0.0000000, 2.07732e-06, 3.1731264, 0.000529482, 0.00000
3.18100, 0.00052752162, 0.0000000, 1.96097e-06, 3.1654436, 0.000529482, 0.00000
3.18200, 0.00052757498, 0.0000000, 1.90716e-06, 3.1516864, 0.000529482, 0.00000
3.18300, 0.00052772933, 0.0000000, 1.75369e-06, 3.1750752, 0.000529482, 0.00000
3.18400, 0.00052778300, 0.0000000, 1.69970e-06, 3.1693188, 0.000529482, 0.00000
3.18500, 0.00052788698, 0.0000000, 1.59511e-06, 3.1486303, 0.000529482, 0.00000
3.18600, 0.00052801945, 0.0000000, 1.46424e-06, 3.1891319, 0.000529482, 0.00000
3.18700, 0.00052807171, 0.0000000, 1.41104e-06, 3.1733424, 0.000529482, 0.00000
3.18800, 0.00052823999, 0.0000000, 1.24582e-06, 3.2191707, 0.000529482, 0.00000
3.18900, 0.00052833274, 0.0000000, 1.15135e-06, 3.2011477, 0.000529482, 0.00000
3.19000, 0.00052839535, 0.0000000, 1.08760e-06, 3.1822330, 0.000529482, 0.00000
3.19100, 0.00052852867, 0.0000000, 9.57570e-07, 3.2353312, 0.000529482, 0.00000
3.19200, 0.00052863888, 0.0000000, 8.47193e-07, 3.2391688, 0.000529482, 0.00000
3.19300, 0.00052871996, 0.0000000, 7.62341e-07, 3.1684310, 0.000529482, 0.00000
3.19400, 0.00052886045, 0.0000000, 6.23691e-07, 3.2234384, 0.000529482, 0.00000
3.19500, 0.00052892314, 0.0000000, 5.59738e-07, 3.1964103, 0.000529482, 0.00000
3.19600, 0.00052905564, 0.0000000, 4.26743e-07, 3.1822960, 0.000529482, 0.00000
3.19700, 0.00052914168, 0.0000000, 3.40950e-07, 3.2006175, 0.000529482, 0.00000
3.19800, 0.00052922710, 0.0000000, 2.55332e-07, 3.0856816, 0.000529482, 0.00000
3.19900, 0.00052936027, 0.0000000, 1.23699e-07, 2.9652321, 0.000529482, 0.00000
3.20000, 0.00052948204, -0.0000000, 0.00000, -1.5707963, 0.000529482, 0.00000
3.20100, 0.00052951811, 0.0000000, 5.75856e-08, 0.89381496, 0.000529482, 0.00000
3.20200, 0.00052970406, -0.0000000, 2.22206e-07, -0.041583941, 0.000529482, 0.00000
3.20300, 0.00052978094, -0.0000000, 2.98912e-07, -0.0069395410, 0.000529482, 0.00000
3.20400, 0.00052985077, 0.0000000, 3.70948e-07, 0.10963116, 0.000529482, 0.00000
3.20500, 0.00052999945, 0.0000000, 5.17469e-07, 0.014136759, 0.000529482, 0.00000
3.20600, 0.00053010276, 0.0000000, 6.20883e-07, 0.023366459, 0.000529482, 0.00000
3.20700, 0.00053015628, 0.0000000, 6.76027e-07, 0.072766059, 0.000529482, 0.00000
3.20800, 0.00053033303, 0.0000000, 8.51254e-07, 0.024362659, 0.000529482, 0.00000
3.20900, 0.00053034540, 0.0000000, 8.64502e-07, 0.051291259, 0.000529482, 0.00000
3.21000, 0.00053047798, 0.0000000, 9.97616e-07, 0.057998059, 0.000529482, 0.00000
3.21100, 0.00053059863, 0.0000000, 1.11724e-06, 0.034124959, 0.000529482, 0.00000
3.21200, 0.00053066933, 0.0000000, 1.18992e-06, 0.066630759, 0.000529482, 0.00000
3.21300, 0.00053079776, 0.0000000, 1.31774e-06, 0.055379659, 0.000529482, 0.00000
3.21400, 0.00053086215, 0.0000000, 1.38150e-06, 0.044902959, 0.000529482, 0.00000
3.21500, 0.00053095151, 0.0000000, 1.47266e-06, 0.065787459, 0.000529482, 0.00000
3.21600, 0.00053107078, 0.0000000, 1.59027e-06, 0.043957259, 0.000529482, 0.00000
3.21700, 0.00053118928, 0.0000000, 1.70947e-06, 0.051189159, 0.000529482, 0.00000
3.21800, 0.00053124952, 0.0000000, 1.77248e-06, 0.075328259, 0.000529482, 0.00000
3.21900, 0.00053138721, 0.0000000, 1.90703e-06, 0.044256059, 0.000529482, 0.00000
3.22000, 0.00053150909, 0.0000000, 2.02812e-06, 0.032663359, 0.000529482, 0.00000
3.22100, 0.00053159075, 0.0000000, 2.11070e-06, 0.043557259, 0.000529482, 0.00000
3.22200, 0.00053171889, 0.0000000, 2.23786e-06, 0.029986059, 0.000529482, 0.00000
3.22300, 0.00053180004, 0.0000000, 2.31982e-06, 0.039610459, 0.000529482, 0.00000
3.22400, 0.00053193189, 0.0000000, 2.45089e-06, 0.029082659, 0.000529482, 0.00000
3.22500, 0.00053203347, 0.0000000, 2.55240e-06, 0.027508159, 0.000529482, 0.00000
3.22600, 0.00053206192, 0.0000000, 2.58146e-06, 0.034982359, 0.000529482, 0.00000
3.22700, 0.00053226536, 0.0000000, 2.78561e-06, 0.040672659, 0.000529482, 0.00000
3.22800, 0.00053232122, 0.0000000, 2.84107e-06, 0.036614059, 0.000529482, 0.00000
3.22900, 0.00053243526, 0.0000000, 2.95949e-06, 0.065264859, 0.000529482, 0.00000
3.23000, 0.00053252513, 0.0000000, 3.04666e-06, 0.048635559, 0.000529482, 0.00000
3.23100, 0.00053265366, 0.0000000, 3.17514e-06, 0.047260159, 0.000529482, 0.00000
3.23200, 0.00053271503, 0.0000000, 3.23821e-06, 0.056963559, 0.000529482, 0.00000
3.23300, 0.00053286782, 0.0000000, 3.39009e-06, 0.050508259, 0.000529482, 0.00000
3.23400, 0.00053292496, 0.0000000, 3.44747e-06, 0.051513959, 0.000529482, 0.00000
3.23500, 0.00053308163, 0.00048828125, 3.60517e-06, 0.055787659, 0.000529482, 0.00000
3.23600, 0.00053319617, 0.0000000, 3.71656e-06, 0.036307259, 0.000529482, 0.00000
3.23700, 0.00053325414, 0.0000000, 3.77668e-06, 0.049444659, 0.000529482, 0.00000
3.23800, 0.00053334923, 0.0000000, 3.87087e-06, 0.043713359, 0.000529482, 0.00000
3.23900, 0.00053351135, 0.0000000, 4.03208e-06, 0.037200259, 0.000529482, 0.00000
3.24000, 0.00053352138, 0.0000000, 4.04387e-06, 0.047440759, 0.000529482, 0.00000
