time(s), Phieff(Wb), Thetaeff(rad), Phipl(Wb), DelTheta(rad), Phiext(Wb), Thetaext(rad)
3.00000, 0.00057599309, -0.0000000, 0.00000, -2.1991150, 0.00057599309, 0.581026
3.00100, 0.00057618977, -0.0000000, 2.51303e-07, -0.71935194, 0.00057599309, 0.581026
3.00200, 0.00057632214, -0.0000000, 3.74692e-07, -0.54619144, 0.00057599309, 0.581026
3.00300, 0.00057644912, -0.0000000, 4.74954e-07, -0.33065724, 0.00057599309, 0.581026
3.00400, 0.00057677684, -0.0000000, 7.90594e-07, -0.17901064, 0.00057599309, 0.581026
3.00500, 0.00057720919, -0.0000000, 1.21857e-06, -0.11098224, 0.00057599309, 0.581026
3.00600, 0.00057773867, 0.0000000, 1.74559e-06, -0.044947639, 0.00057599309, 0.581026
3.00700, 0.00057841187, 0.0000000, 2.42020e-06, -0.012948739, 0.00057599309, 0.581026
3.00800, 0.00057909438, 0.0000000, 3.10497e-06, 0.0014888610, 0.00057599309, 0.581026
3.00900, 0.00057975211, 0.00048828125, 3.77036e-06, 0.030518461, 0.00057599309, 0.581026
3.01000, 0.00058046190, 0.00077204045, 4.49048e-06, 0.051376361, 0.00057599309, 0.581026
3.01100, 0.00058108130, 0.0012448779, 5.13709e-06, 0.091373461, 0.00057599309, 0.581026
3.01200, 0.00058172050, 0.0015822123, 5.80158e-06, 0.11357806, 0.00057599309, 0.581026
3.01300, 0.00058234205, 0.0020132356, 6.45597e-06, 0.13604206, 0.00057599309, 0.581026
3.01400, 0.00058288154, 0.0024657000, 7.03541e-06, 0.15869516, 0.00057599309, 0.581026
3.01500, 0.00058341915, 0.0028680039, 7.61052e-06, 0.17476486, 0.00057599309, 0.581026
3.01600, 0.00058399813, 0.0032388929, 8.22556e-06, 0.18641926, 0.00057599309, 0.581026
3.01700, 0.00058451037, 0.0036211926, 8.77105e-06, 0.19565246, 0.00057599309, 0.581026
3.01800, 0.00058506817, 0.0039517637, 9.36091e-06, 0.20244616, 0.00057599309, 0.581026
3.01900, 0.00058554632, 0.0042846538, 9.87266e-06, 0.20993106, 0.00057599309, 0.581026
3.02000, 0.00058604036, 0.0045934827, 1.03952e-05, 0.21446936, 0.00057599309, 0.581026
3.02100, 0.00058658370, 0.0049193022, 1.09716e-05, 0.21948616, 0.00057599309, 0.581026
3.02200, 0.00058703261, 0.0051905066, 1.14447e-05, 0.22220016, 0.00057599309, 0.581026
3.02300, 0.00058755712, 0.0054263030, 1.19865e-05, 0.22171826, 0.00057599309, 0.581026
3.02400, 0.00058808952, 0.0056099319, 1.25298e-05, 0.21930116, 0.00057599309, 0.581026
3.02500, 0.00058859345, 0.0057774298, 1.30412e-05, 0.21636216, 0.00057599309, 0.581026
3.02600, 0.00058910483, 0.0058999332, 1.35538e-05, 0.21177266, 0.00057599309, 0.581026
3.02700, 0.00058972812, 0.0058796932, 1.41565e-05, 0.20029326, 0.00057599309, 0.581026
3.02800, 0.00059023657, 0.0059901671, 1.46654e-05, 0.19617336, 0.00057599309, 0.581026
3.02900, 0.00059086770, 0.0058593834, 1.52634e-05, 0.18184806, 0.00057599309, 0.581026
3.03000, 0.00059142268, 0.0058593834, 1.58038e-05, 0.17370386, 0.00057599309, 0.581026
3.03100, 0.00059194546, 0.0058593834, 1.63157e-05, 0.16709106, 0.00057599309, 0.581026
3.03200, 0.00059242135, 0.0058796932, 1.67842e-05, 0.16198246, 0.00057599309, 0.581026
3.03300, 0.00059277083, 0.0058796932, 1.71260e-05, 0.15768116, 0.00057599309, 0.581026
3.03400, 0.00059312166, 0.0058999332, 1.74710e-05, 0.15398716, 0.00057599309, 0.581026
3.03500, 0.00059345262, 0.0058492022, 1.77901e-05, 0.14872476, 0.00057599309, 0.581026
3.03600, 0.00059378857, 0.0056942967, 1.81046e-05, 0.14063376, 0.00057599309, 0.581026
3.03700, 0.00059413486, 0.0056733228, 1.84430e-05, 0.13655156, 0.00057599309, 0.581026
3.03800, 0.00059451319, 0.0054153078, 1.87898e-05, 0.12507486, 0.00057599309, 0.581026
3.03900, 0.00059482151, 0.0053265258, 1.90837e-05, 0.11913396, 0.00057599309, 0.581026
3.04000, 0.00059518948, 0.0050626132, 1.94241e-05, 0.10853196, 0.00057599309, 0.581026
3.04100, 0.00059558198, 0.0048460579, 1.97923e-05, 0.098635361, 0.00057599309, 0.581026
3.04200, 0.00059586503, 0.0045674569, 2.00523e-05, 0.089241961, 0.00057599309, 0.581026
3.04300, 0.00059622147, 0.0042427150, 2.03797e-05, 0.076777461, 0.00057599309, 0.581026
3.04400, 0.00059652170, 0.0038602047, 2.06522e-05, 0.064106161, 0.00057599309, 0.581026
3.04500, 0.00059680820, 0.0035547430, 2.09189e-05, 0.054151461, 0.00057599309, 0.581026
3.04600, 0.00059714774, 0.0031265267, 2.12342e-05, 0.040875661, 0.00057599309, 0.581026
3.04700, 0.00059736837, 0.0026966222, 2.14339e-05, 0.028047261, 0.00057599309, 0.581026
3.04800, 0.00059764428, 0.0022902426, 2.16927e-05, 0.015733461, 0.00057599309, 0.581026
3.04900, 0.00059797496, 0.0017605233, 2.20061e-05, 0.00052756098, 0.00057599309, 0.581026
3.05000, 0.00059817147, 0.0013372133, 2.21924e-05, -0.011066239, 0.00057599309, 0.581026
3.05100, 0.00059848148, 0.00077204045, 2.24936e-05, -0.025356039, 0.00057599309, 0.581026
3.05200, 0.00059874646, 0.00048828125, 2.27542e-05, -0.038596939, 0.00057599309, 0.581026
3.05300, 0.00059896162, -0.0000000, 2.29686e-05, -0.049766139, 0.00057599309, 0.581026
3.05400, 0.00059922167, -0.00059801998, 2.32318e-05, -0.064270239, 0.00057599309, 0.581026
3.05500, 0.00059944949, -0.0011451211, 2.34665e-05, -0.077219539, 0.00057599309, 0.581026
3.05600, 0.00059963200, -0.0016558425, 2.36587e-05, -0.089031039, 0.00057599309, 0.581026
3.05700, 0.00059984703, -0.0021561920, 2.38885e-05, -0.10219484, 0.00057599309, 0.581026
3.05800, 0.00060003371, -0.0026966222, 2.40919e-05, -0.11389734, 0.00057599309, 0.581026
3.05900, 0.00060014435, -0.0032204373, 2.42254e-05, -0.12717224, 0.00057599309, 0.581026
3.06000, 0.00060036490, -0.0037505617, 2.44715e-05, -0.13947994, 0.00057599309, 0.581026
3.06100, 0.00060047118, -0.0042567407, 2.46063e-05, -0.15157564, 0.00057599309, 0.581026
3.06200, 0.00060060437, -0.0048460579, 2.47750e-05, -0.16476184, 0.00057599309, 0.581026
3.06300, 0.00060075672, -0.0054263030, 2.49695e-05, -0.17854094, 0.00057599309, 0.581026
3.06400, 0.00060082357, -0.0059301639, 2.50741e-05, -0.18979814, 0.00057599309, 0.581026
3.06500, 0.00060091409, -0.0065236390, 2.52156e-05, -0.20360474, 0.00057599309, 0.581026
3.06600, 0.00060105165, -0.0071429540, 2.54079e-05, -0.21691634, 0.00057599309, 0.581026
3.06700, 0.00060104325, -0.0075801816, 2.54445e-05, -0.22741074, 0.00057599309, 0.581026
3.06800, 0.00060113567, -0.0081705311, 2.55985e-05, -0.24043934, 0.00057599309, 0.581026
3.06900, 0.00060118866, -0.0086799050, 2.57085e-05, -0.25177314, 0.00057599309, 0.581026
3.07000, 0.00060119629, -0.0091740042, 2.57744e-05, -0.26284754, 0.00057599309, 0.581026
3.07100, 0.00060124518, -0.0096613457, 2.58837e-05, -0.27354024, 0.00057599309, 0.581026
3.07200, 0.00060125063, -0.010183956, 2.59587e-05, -0.28538994, 0.00057599309, 0.581026
3.07300, 0.00060123279, -0.010625076, 2.60024e-05, -0.29546314, 0.00057599309, 0.581026
3.07400, 0.00060124689, -0.011155975, 2.60923e-05, -0.30713014, 0.00057599309, 0.581026
3.07500, 0.00060123050, -0.011534255, 2.61340e-05, -0.31582014, 0.00057599309, 0.581026
3.07600, 0.00060120383, -0.012044894, 2.61890e-05, -0.32756664, 0.00057599309, 0.581026
3.07700, 0.00060122922, -0.012586948, 2.63010e-05, -0.33918484, 0.00057599309, 0.581026
3.07800, 0.00060111928, -0.012951055, 2.62561e-05, -0.34827214, 0.00057599309, 0.581026
3.07900, 0.00060110597, -0.013522938, 2.63425e-05, -0.36086754, 0.00057599309, 0.581026
3.08000, 0.00060106339, -0.013939666, 2.63786e-05, -0.37060644, 0.00057599309, 0.581026
3.08100, 0.00060099513, -0.014414763, 2.64010e-05, -0.38157304, 0.00057599309, 0.581026
3.08200, 0.00060095591, -0.014802388, 2.64381e-05, -0.39041514, 0.00057599309, 0.581026
3.08300, 0.00060087220, -0.015359682, 2.64688e-05, -0.40339094, 0.00057599309, 0.581026
3.08400, 0.00060078717, -0.015799666, 2.64787e-05, -0.41390594, 0.00057599309, 0.581026
3.08500, 0.00060070609, -0.016257085, 2.64982e-05, -0.42466894, 0.00057599309, 0.581026
3.08600, 0.00060061559, -0.016630452, 2.64946e-05, -0.43386944, 0.00057599309, 0.581026
3.08700, 0.00060050781, -0.017006136, 2.64772e-05, -0.44332324, 0.00057599309, 0.581026
3.08800, 0.00060044805, -0.017506996, 2.65340e-05, -0.45463184, 0.00057599309, 0.581026
3.08900, 0.00060028000, -0.017827518, 2.64520e-05, -0.46370704, 0.00057599309, 0.581026
3.09000, 0.00060019657, -0.018253746, 2.64760e-05, -0.47386144, 0.00057599309, 0.581026
3.09100, 0.00060009055, -0.018698959, 2.64869e-05, -0.48476174, 0.00057599309, 0.581026
3.09200, 0.00059997067, -0.019105757, 2.64773e-05, -0.49496944, 0.00057599309, 0.581026
3.09300, 0.00059986304, -0.019491846, 2.64768e-05, -0.50461234, 0.00057599309, 0.581026
3.09400, 0.00059973435, -0.019918375, 2.64698e-05, -0.51539544, 0.00057599309, 0.581026
3.09500, 0.00059956715, -0.020315431, 2.64251e-05, -0.52635884, 0.00057599309, 0.581026
3.09600, 0.00059950942, -0.020782463, 2.64977e-05, -0.53672314, 0.00057599309, 0.581026
3.09700, 0.00059937433, -0.021149229, 2.64780e-05, -0.54645844, 0.00057599309, 0.581026
3.09800, 0.00059925212, -0.021534670, 2.64769e-05, -0.55632224, 0.00057599309, 0.581026
3.09900, 0.00059917553, -0.022021875, 2.65475e-05, -0.56738784, 0.00057599309, 0.581026
3.10000, 0.00059901795, -0.022360336, 2.65074e-05, -0.57696794, 0.00057599309, 0.581026
3.10100, 0.00059891498, -0.022740981, 2.65303e-05, -0.58643234, 0.00057599309, 0.581026
3.10200, 0.00059881877, -0.023138557, 2.65648e-05, -0.59597834, 0.00057599309, 0.581026
3.10300, 0.00059865732, -0.023481233, 2.65288e-05, -0.60569084, 0.00057599309, 0.581026
3.10400, 0.00059857557, -0.023868980, 2.65784e-05, -0.61480764, 0.00057599309, 0.581026
3.10500, 0.00059847458, -0.024149539, 2.65792e-05, -0.62216024, 0.00057599309, 0.581026
3.10600, 0.00059832676, -0.024475632, 2.65558e-05, -0.63129664, 0.00057599309, 0.581026
3.10700, 0.00059823416, -0.024840673, 2.65948e-05, -0.64013864, 0.00057599309, 0.581026
3.10800, 0.00059815286, -0.025214616, 2.66479e-05, -0.64887534, 0.00057599309, 0.581026
3.10900, 0.00059803702, -0.025541117, 2.66580e-05, -0.65737834, 0.00057599309, 0.581026
3.11000, 0.00059793648, -0.025932552, 2.67045e-05, -0.66676944, 0.00057599309, 0.581026
3.11100, 0.00059781101, -0.026300041, 2.67238e-05, -0.67617144, 0.00057599309, 0.581026
3.11200, 0.00059769772, -0.026584098, 2.67277e-05, -0.68382194, 0.00057599309, 0.581026
3.11300, 0.00059765432, -0.027057512, 2.68559e-05, -0.69341224, 0.00057599309, 0.581026
3.11400, 0.00059749059, -0.027362037, 2.68282e-05, -0.70242544, 0.00057599309, 0.581026
3.11500, 0.00059739357, -0.027807217, 2.69084e-05, -0.71260404, 0.00057599309, 0.581026
3.11600, 0.00059738593, -0.028181994, 2.70356e-05, -0.71940254, 0.00057599309, 0.581026
3.11700, 0.00059722028, -0.028468220, 2.70065e-05, -0.72813454, 0.00057599309, 0.581026
3.11800, 0.00059718331, -0.028939657, 2.71492e-05, -0.73720814, 0.00057599309, 0.581026
3.11900, 0.00059703379, -0.029222541, 2.71361e-05, -0.74552014, 0.00057599309, 0.581026
3.12000, 0.00059699140, -0.029545117, 2.72228e-05, -0.75203414, 0.00057599309, 0.581026
3.12100, 0.00059689160, -0.029896131, 2.72762e-05, -0.76029224, 0.00057599309, 0.581026
3.12200, 0.00059676836, -0.030250955, 2.73157e-05, -0.76917094, 0.00057599309, 0.581026
3.12300, 0.00059668393, -0.030466955, 2.73334e-05, -0.77477764, 0.00057599309, 0.581026
3.12400, 0.00059664704, -0.030846147, 2.74503e-05, -0.78192984, 0.00057599309, 0.581026
3.12500, 0.00059649887, -0.031178700, 2.74674e-05, -0.79095344, 0.00057599309, 0.581026
3.12600, 0.00059639776, -0.031543672, 2.75338e-05, -0.79932434, 0.00057599309, 0.581026
3.12700, 0.00059636047, -0.031839006, 2.76224e-05, -0.80500734, 0.00057599309, 0.581026
3.12800, 0.00059623591, -0.032205753, 2.76762e-05, -0.81393524, 0.00057599309, 0.581026
3.12900, 0.00059618097, -0.032672539, 2.78218e-05, -0.82263934, 0.00057599309, 0.581026
3.13000, 0.00059608132, -0.032972232, 2.78708e-05, -0.82981454, 0.00057599309, 0.581026
3.13100, 0.00059601490, -0.033322938, 2.79652e-05, -0.83690284, 0.00057599309, 0.581026
3.13200, 0.00059596138, -0.033659365, 2.80641e-05, -0.84339654, 0.00057599309, 0.581026
3.13300, 0.00059590239, -0.034130733, 2.82175e-05, -0.85207934, 0.00057599309, 0.581026
3.13400, 0.00059581784, -0.034367464, 2.82555e-05, -0.85774424, 0.00057599309, 0.581026
3.13500, 0.00059576603, -0.034747001, 2.83773e-05, -0.86470094, 0.00057599309, 0.581026
3.13600, 0.00059566572, -0.035079971, 2.84459e-05, -0.87210094, 0.00057599309, 0.581026
3.13700, 0.00059557084, -0.035392977, 2.85127e-05, -0.87908654, 0.00057599309, 0.581026
3.13800, 0.00059553735, -0.035694886, 2.86187e-05, -0.88433474, 0.00057599309, 0.581026
3.13900, 0.00059542211, -0.035891429, 2.86220e-05, -0.89003674, 0.00057599309, 0.581026
3.14000, 0.00059540094, -0.036373224, 2.88156e-05, -0.89746694, 0.00057599309, 0.581026
3.14100, 0.00059537092, -0.036595456, 2.88913e-05, -0.90136534, 0.00057599309, 0.581026
3.14200, 0.00059525937, -0.036900457, 2.89488e-05, -0.90848854, 0.00057599309, 0.581026
3.14300, 0.00059523300, -0.037167687, 2.90471e-05, -0.91284814, 0.00057599309, 0.581026
3.14400, 0.00059519619, -0.037507795, 2.91721e-05, -0.91847904, 0.00057599309, 0.581026
3.14500, 0.00059512906, -0.037836965, 2.92722e-05, -0.92466504, 0.00057599309, 0.581026
3.14600, 0.00059511820, -0.038191408, 2.94220e-05, -0.92971924, 0.00057599309, 0.581026
3.14700, 0.00059507691, -0.038527124, 2.95450e-05, -0.93527674, 0.00057599309, 0.581026
3.14800, 0.00059505030, -0.038922790, 2.97052e-05, -0.94119914, 0.00057599309, 0.581026
3.14900, 0.00059503957, -0.039227944, 2.98354e-05, -0.94546464, 0.00057599309, 0.581026
3.15000, 0.00059504433, -0.039526217, 2.99726e-05, -0.94919924, 0.00057599309, 0.581026
3.15100, 0.00059500428, -0.039876122, 3.01048e-05, -0.95470194, 0.00057599309, 0.581026
3.15200, 0.00059504708, -0.040205188, 3.02819e-05, -0.95780504, 0.00057599309, 0.581026
3.15300, 0.00059498046, -0.040466815, 3.03579e-05, -0.96277674, 0.00057599309, 0.581026
3.15400, 0.00059499784, -0.040754564, 3.05019e-05, -0.96597344, 0.00057599309, 0.581026
3.15500, 0.00059502281, -0.041038845, 3.06482e-05, -0.96887524, 0.00057599309, 0.581026
3.15600, 0.00059496918, -0.041332711, 3.07484e-05, -0.97381884, 0.00057599309, 0.581026
3.15700, 0.00059502970, -0.041574344, 3.08984e-05, -0.97525924, 0.00057599309, 0.581026
3.15800, 0.00059501817, -0.041861605, 3.10231e-05, -0.97901404, 0.00057599309, 0.581026
3.15900, 0.00059502616, -0.042094536, 3.11359e-05, -0.98161714, 0.00057599309, 0.581026
3.16000, 0.00059506412, -0.042441539, 3.13209e-05, -0.98482004, 0.00057599309, 0.581026
3.16100, 0.00059506653, -0.042672705, 3.14302e-05, -0.98750694, 0.00057599309, 0.581026
3.16200, 0.00059507975, -0.042973444, 3.15790e-05, -0.99072674, 0.00057599309, 0.581026
3.16300, 0.00059514181, -0.043376684, 3.18048e-05, -0.99386294, 0.00057599309, 0.581026
3.16400, 0.00059513411, -0.043622036, 3.19145e-05, -0.99687724, 0.00057599309, 0.581026
3.16500, 0.00059520573, -0.043899983, 3.20893e-05, -0.99831144, 0.00057599309, 0.581026
3.16600, 0.00059530163, -0.044164032, 3.22724e-05, -0.99897684, 0.00057599309, 0.581026
3.16700, 0.00059532413, -0.044466760, 3.24284e-05, -1.0018527, 0.00057599309, 0.581026
3.16800, 0.00059537010, -0.044703465, 3.25674e-05, -1.0033821, 0.00057599309, 0.581026
3.16900, 0.00059542356, -0.044976059, 3.27288e-05, -1.0051378, 0.00057599309, 0.581026
3.17000, 0.00059544831, -0.045211416, 3.28550e-05, -1.0071530, 0.00057599309, 0.581026
3.17100, 0.00059549875, -0.045463923, 3.30044e-05, -1.0087095, 0.00057599309, 0.581026
3.17200, 0.00059560200, -0.045742415, 3.31998e-05, -1.0093083, 0.00057599309, 0.581026
3.17300, 0.00059560545, -0.045880381, 3.32671e-05, -1.0107295, 0.00057599309, 0.581026
3.17400, 0.00059570680, -0.046244122, 3.34998e-05, -1.0122367, 0.00057599309, 0.581026
3.17500, 0.00059572510, -0.046383165, 3.35769e-05, -1.0133040, 0.00057599309, 0.581026
3.17600, 0.00059585637, -0.046691947, 3.38034e-05, -1.0135288, 0.00057599309, 0.581026
3.17700, 0.00059596445, -0.046918705, 3.39759e-05, -1.0133991, 0.00057599309, 0.581026
3.17800, 0.00059599181, -0.047217675, 3.41349e-05, -1.0159424, 0.00057599309, 0.581026
3.17900, 0.00059611210, -0.047533583, 3.43568e-05, -1.0164510, 0.00057599309, 0.581026
3.18000, 0.00059621260, -0.047922119, 3.46028e-05, -1.0182006, 0.00057599309, 0.581026
3.18100, 0.00059629339, -0.048150521, 3.47592e-05, -1.0186914, 0.00057599309, 0.581026
3.18200, 0.00059638306, -0.048392631, 3.49292e-05, -1.0191544, 0.00057599309, 0.581026
3.18300, 0.00059653575, -0.048758436, 3.51959e-05, -1.0194456, 0.00057599309, 0.581026
3.18400, 0.00059658188, -0.048957366, 3.53176e-05, -1.0204139, 0.00057599309, 0.581026
3.18500, 0.00059671028, -0.049326241, 3.55714e-05, -1.0212784, 0.00057599309, 0.581026
3.18600, 0.00059672171, -0.049530119, 3.56753e-05, -1.0230728, 0.00057599309, 0.581026
3.18700, 0.00059684253, -0.049794272, 3.58733e-05, -1.0230088, 0.00057599309, 0.581026
3.18800, 0.00059698987, -0.050110608, 3.61131e-05, -1.0228989, 0.00057599309, 0.581026
3.18900, 0.00059705960, -0.050285228, 3.62384e-05, -1.0230938, 0.00057599309, 0.581026
3.19000, 0.00059718919, -0.050548978, 3.64425e-05, -1.0228596, 0.00057599309, 0.581026
3.19100, 0.00059730113, -0.050793752, 3.66267e-05, -1.0228231, 0.00057599309, 0.581026
3.19200, 0.00059740181, -0.051047869, 3.68073e-05, -1.0230976, 0.00057599309, 0.581026
3.19300, 0.00059753721, -0.051299565, 3.70095e-05, -1.0226356, 0.00057599309, 0.581026
3.19400, 0.00059765500, -0.051614769, 3.72305e-05, -1.0231543, 0.00057599309, 0.581026
3.19500, 0.00059775467, -0.051739395, 3.73503e-05, -1.0222318, 0.00057599309, 0.581026
3.19600, 0.00059792169, -0.052231491, 3.76863e-05, -1.0234207, 0.00057599309, 0.581026
3.19700, 0.00059802828, -0.052465014, 3.78611e-05, -1.0233805, 0.00057599309, 0.581026
3.19800, 0.00059814314, -0.052704293, 3.80452e-05, -1.0232536, 0.00057599309, 0.581026
3.19900, 0.00059831398, -0.053011157, 3.82944e-05, -1.0225828, 0.00057599309, 0.581026
3.20000, 0.00059847213, -0.053264778, 3.85109e-05, -1.0216908, 0.00057599309, 0.581026
3.20100, 0.00059860986, -0.053512741, 3.87123e-05, -1.0211755, 0.00057599309, 0.581026
3.20200, 0.00059876501, -0.053769547, 3.89281e-05, -1.0203859, 0.00057599309, 0.581026
3.20300, 0.00059887185, -0.053985380, 3.90958e-05, -1.0202205, 0.00057599309, 0.581026
3.20400, 0.00059902276, -0.054355267, 3.93634e-05, -1.0205871, 0.00057599309, 0.581026
3.20500, 0.00059921349, -0.054614667, 3.96031e-05, -1.0191477, 0.00057599309, 0.581026
3.20600, 0.00059931541, -0.054672506, 3.96926e-05, -1.0176395, 0.00057599309, 0.581026
3.20700, 0.00059951488, -0.054996591, 3.99678e-05, -1.0166368, 0.00057599309, 0.581026
3.20800, 0.00059965986, -0.055258378, 4.01810e-05, -1.0161703, 0.00057599309, 0.581026
3.20900, 0.00059980187, -0.055429708, 4.03493e-05, -1.0149429, 0.00057599309, 0.581026
3.21000, 0.00059997308, -0.055702306, 4.05832e-05, -1.0140688, 0.00057599309, 0.581026
3.21100, 0.00060013535, -0.055932015, 4.07918e-05, -1.0130010, 0.00057599309, 0.581026
3.21200, 0.00060027733, -0.056274291, 4.10412e-05, -1.0133457, 0.00057599309, 0.581026
3.21300, 0.00060050072, -0.056548100, 4.13084e-05, -1.0115249, 0.00057599309, 0.581026
3.21400, 0.00060061403, -0.056723945, 4.14617e-05, -1.0109454, 0.00057599309, 0.581026
3.21500, 0.00060077805, -0.057051025, 4.17168e-05, -1.0107385, 0.00057599309, 0.581026
3.21600, 0.00060101516, -0.057332572, 4.19967e-05, -1.0087860, 0.00057599309, 0.581026
3.21700, 0.00060112883, -0.057538159, 4.21638e-05, -1.0084743, 0.00057599309, 0.581026
3.21800, 0.00060135831, -0.057760578, 4.24108e-05, -1.0061719, 0.00057599309, 0.581026
3.21900, 0.00060149539, -0.058057174, 4.26358e-05, -1.0062501, 0.00057599309, 0.581026
3.22000, 0.00060167657, -0.058321599, 4.28729e-05, -1.0052397, 0.00057599309, 0.581026
3.22100, 0.00060185455, -0.058518626, 4.30763e-05, -1.0037130, 0.00057599309, 0.581026
3.22200, 0.00060205688, -0.058746468, 4.33104e-05, -1.0020461, 0.00057599309, 0.581026
3.22300, 0.00060220504, -0.058902603, 4.34767e-05, -1.0007417, 0.00057599309, 0.581026
3.22400, 0.00060245633, -0.059228741, 4.37864e-05, -0.99905924, 0.00057599309, 0.581026
3.22500, 0.00060263627, -0.059327338, 4.39462e-05, -0.99672874, 0.00057599309, 0.581026
3.22600, 0.00060282393, -0.059609149, 4.41962e-05, -0.99584604, 0.00057599309, 0.581026
