time(s), Phieff(Wb), Thetaeff(rad), Phipl(Wb), DelTheta(rad), Phiext(Wb), Thetaext(rad)
3.00000, 0.00050540453, 0.098330393, 8.82905e-05, 2.4975307, 0.00057599309, 0.581026
3.00100, 0.00050561716, 0.098069586, 8.80425e-05, 2.4971378, 0.00057599309, 0.581026
3.00200, 0.00050567869, 0.097942881, 8.79542e-05, 2.4972494, 0.00057599309, 0.581026
3.00300, 0.00050578821, 0.098016612, 8.78943e-05, 2.4961217, 0.00057599309, 0.581026
3.00400, 0.00050606581, 0.097964823, 8.76643e-05, 2.4943249, 0.00057599309, 0.581026
3.00500, 0.00050647941, 0.097977623, 8.73523e-05, 2.4912212, 0.00057599309, 0.581026
3.00600, 0.00050702235, 0.097914837, 8.69172e-05, 2.4874756, 0.00057599309, 0.581026
3.00700, 0.00050766708, 0.097925201, 8.64305e-05, 2.4825966, 0.00057599309, 0.581026
3.00800, 0.00050833725, 0.097953856, 8.59328e-05, 2.4773862, 0.00057599309, 0.581026
3.00900, 0.00050901393, 0.098100625, 8.54723e-05, 2.4715355, 0.00057599309, 0.581026
3.01000, 0.00050973209, 0.098219223, 8.49742e-05, 2.4654238, 0.00057599309, 0.581026
3.01100, 0.00051032619, 0.098565079, 8.46494e-05, 2.4592002, 0.00057599309, 0.581026
3.01200, 0.00051099216, 0.098894037, 8.42693e-05, 2.4524267, 0.00057599309, 0.581026
3.01300, 0.00051160727, 0.099270031, 8.39470e-05, 2.4457920, 0.00057599309, 0.581026
3.01400, 0.00051214869, 0.099680550, 8.36945e-05, 2.4395535, 0.00057599309, 0.581026
3.01500, 0.00051271526, 0.099998690, 8.33953e-05, 2.4334710, 0.00057599309, 0.581026
3.01600, 0.00051322052, 0.10021876, 8.31080e-05, 2.4282992, 0.00057599309, 0.581026
3.01700, 0.00051371781, 0.10060643, 8.28895e-05, 2.4224050, 0.00057599309, 0.581026
3.01800, 0.00051426365, 0.10079853, 8.25686e-05, 2.4169366, 0.00057599309, 0.581026
3.01900, 0.00051472955, 0.10106118, 8.23330e-05, 2.4117925, 0.00057599309, 0.581026
3.02000, 0.00051520856, 0.10137264, 8.21081e-05, 2.4062917, 0.00057599309, 0.581026
3.02100, 0.00051573791, 0.10149860, 8.17825e-05, 2.4011371, 0.00057599309, 0.581026
3.02200, 0.00051614155, 0.10183923, 8.16264e-05, 2.3960979, 0.00057599309, 0.581026
3.02300, 0.00051664634, 0.10198452, 8.13295e-05, 2.3910039, 0.00057599309, 0.581026
3.02400, 0.00051713137, 0.10213605, 8.10507e-05, 2.3860219, 0.00057599309, 0.581026
3.02500, 0.00051752541, 0.10235387, 8.08620e-05, 2.3815262, 0.00057599309, 0.581026
3.02600, 0.00051801889, 0.10247047, 8.05685e-05, 2.3765547, 0.00057599309, 0.581026
3.02700, 0.00051850572, 0.10252873, 8.02593e-05, 2.3718636, 0.00057599309, 0.581026
3.02800, 0.00051894498, 0.10258520, 7.99836e-05, 2.3675797, 0.00057599309, 0.581026
3.02900, 0.00051945218, 0.10263350, 7.96605e-05, 2.3626716, 0.00057599309, 0.581026
3.03000, 0.00051991890, 0.10255551, 7.93175e-05, 2.3586571, 0.00057599309, 0.581026
3.03100, 0.00052041556, 0.10253339, 7.89778e-05, 2.3540771, 0.00057599309, 0.581026
3.03200, 0.00052087811, 0.10236437, 7.86047e-05, 2.3504312, 0.00057599309, 0.581026
3.03300, 0.00052133462, 0.10222078, 7.82467e-05, 2.3466957, 0.00057599309, 0.581026
3.03400, 0.00052179796, 0.10203311, 7.78678e-05, 2.3430564, 0.00057599309, 0.581026
3.03500, 0.00052233753, 0.10158739, 7.73379e-05, 2.3397815, 0.00057599309, 0.581026
3.03600, 0.00052280630, 0.10123355, 7.68913e-05, 2.3367541, 0.00057599309, 0.581026
3.03700, 0.00052332940, 0.10082281, 7.63875e-05, 2.3334062, 0.00057599309, 0.581026
3.03800, 0.00052394248, 0.10038245, 7.58136e-05, 2.3292539, 0.00057599309, 0.581026
3.03900, 0.00052444304, 0.10013472, 7.53907e-05, 2.3253167, 0.00057599309, 0.581026
3.04000, 0.00052504855, 0.099932395, 7.49199e-05, 2.3200576, 0.00057599309, 0.581026
3.04100, 0.00052540343, 0.099763773, 7.46244e-05, 2.3171737, 0.00057599309, 0.581026
3.04200, 0.00052569727, 0.099754795, 7.44333e-05, 2.3141782, 0.00057599309, 0.581026
3.04300, 0.00052598890, 0.099483907, 7.41377e-05, 2.3123725, 0.00057599309, 0.581026
3.04400, 0.00052621176, 0.099386640, 7.39565e-05, 2.3104885, 0.00057599309, 0.581026
3.04500, 0.00052646329, 0.099158704, 7.37046e-05, 2.3088806, 0.00057599309, 0.581026
3.04600, 0.00052672226, 0.098840900, 7.34107e-05, 2.3076007, 0.00057599309, 0.581026
3.04700, 0.00052697848, 0.098539636, 7.31260e-05, 2.3062589, 0.00057599309, 0.581026
3.04800, 0.00052726104, 0.098194301, 7.28065e-05, 2.3048313, 0.00057599309, 0.581026
3.04900, 0.00052756217, 0.097848967, 7.24752e-05, 2.3031962, 0.00057599309, 0.581026
3.05000, 0.00052777709, 0.097493231, 7.21941e-05, 2.3025234, 0.00057599309, 0.581026
3.05100, 0.00052808102, 0.097011976, 7.18052e-05, 2.3014681, 0.00057599309, 0.581026
3.05200, 0.00052835822, 0.096545637, 7.14392e-05, 2.3006265, 0.00057599309, 0.581026
3.05300, 0.00052858230, 0.096138537, 7.11310e-05, 2.3000820, 0.00057599309, 0.581026
3.05400, 0.00052883652, 0.095612399, 7.07548e-05, 2.2997644, 0.00057599309, 0.581026
3.05500, 0.00052913441, 0.095017426, 7.03226e-05, 2.2992923, 0.00057599309, 0.581026
3.05600, 0.00052932162, 0.094623961, 7.00432e-05, 2.2990844, 0.00057599309, 0.581026
3.05700, 0.00052961889, 0.094013222, 6.96049e-05, 2.2986915, 0.00057599309, 0.581026
3.05800, 0.00052980716, 0.093557507, 6.92988e-05, 2.2987759, 0.00057599309, 0.581026
3.05900, 0.00053001143, 0.093012325, 6.89457e-05, 2.2991178, 0.00057599309, 0.581026
3.06000, 0.00053031798, 0.092431664, 6.85133e-05, 2.2984841, 0.00057599309, 0.581026
3.06100, 0.00053041593, 0.092009656, 6.82781e-05, 2.2994368, 0.00057599309, 0.581026
3.06200, 0.00053064364, 0.091299817, 6.78425e-05, 2.3003433, 0.00057599309, 0.581026
3.06300, 0.00053084882, 0.090704277, 6.74678e-05, 2.3009589, 0.00057599309, 0.581026
3.06400, 0.00053098806, 0.090224616, 6.71827e-05, 2.3017595, 0.00057599309, 0.581026
3.06500, 0.00053119996, 0.089578651, 6.67828e-05, 2.3025768, 0.00057599309, 0.581026
3.06600, 0.00053134269, 0.088970274, 6.64430e-05, 2.3040121, 0.00057599309, 0.581026
3.06700, 0.00053151513, 0.088411748, 6.61043e-05, 2.3048694, 0.00057599309, 0.581026
3.06800, 0.00053165300, 0.087740228, 6.57418e-05, 2.3067257, 0.00057599309, 0.581026
3.06900, 0.00053182313, 0.087027207, 6.53417e-05, 2.3084486, 0.00057599309, 0.581026
3.07000, 0.00053200095, 0.086389169, 6.49673e-05, 2.3097127, 0.00057599309, 0.581026
3.07100, 0.00053219438, 0.085613362, 6.45276e-05, 2.3115361, 0.00057599309, 0.581026
3.07200, 0.00053240456, 0.085109308, 6.41868e-05, 2.3117416, 0.00057599309, 0.581026
3.07300, 0.00053254440, 0.084393203, 6.38059e-05, 2.3139336, 0.00057599309, 0.581026
3.07400, 0.00053274831, 0.083733723, 6.34060e-05, 2.3150880, 0.00057599309, 0.581026
3.07500, 0.00053289721, 0.083220460, 6.31016e-05, 2.3161123, 0.00057599309, 0.581026
3.07600, 0.00053304508, 0.082527056, 6.27250e-05, 2.3181641, 0.00057599309, 0.581026
3.07700, 0.00053323692, 0.081883922, 6.23400e-05, 2.3194330, 0.00057599309, 0.581026
3.07800, 0.00053329074, 0.081368551, 6.20976e-05, 2.3216727, 0.00057599309, 0.581026
3.07900, 0.00053349279, 0.080650382, 6.16763e-05, 2.3232839, 0.00057599309, 0.581026
3.08000, 0.00053356121, 0.080076441, 6.14007e-05, 2.3257372, 0.00057599309, 0.581026
3.08100, 0.00053368822, 0.079520129, 6.10945e-05, 2.3273847, 0.00057599309, 0.581026
3.08200, 0.00053384756, 0.078859337, 6.07248e-05, 2.3292720, 0.00057599309, 0.581026
3.08300, 0.00053392041, 0.078326389, 6.04637e-05, 2.3315041, 0.00057599309, 0.581026
3.08400, 0.00053407970, 0.077666983, 6.00954e-05, 2.3334334, 0.00057599309, 0.581026
3.08500, 0.00053414331, 0.077070102, 5.98160e-05, 2.3362081, 0.00057599309, 0.581026
3.08600, 0.00053425674, 0.076442815, 5.94914e-05, 2.3385799, 0.00057599309, 0.581026
3.08700, 0.00053433229, 0.075793825, 5.91846e-05, 2.3415806, 0.00057599309, 0.581026
3.08800, 0.00053449178, 0.075098731, 5.88034e-05, 2.3438518, 0.00057599309, 0.581026
3.08900, 0.00053453909, 0.074585363, 5.85698e-05, 2.3464377, 0.00057599309, 0.581026
3.09000, 0.00053463493, 0.073932201, 5.82493e-05, 2.3493078, 0.00057599309, 0.581026
3.09100, 0.00053475897, 0.073346466, 5.79359e-05, 2.3514392, 0.00057599309, 0.581026
3.09200, 0.00053478628, 0.072830603, 5.77164e-05, 2.3543713, 0.00057599309, 0.581026
3.09300, 0.00053489533, 0.072222739, 5.74053e-05, 2.3568914, 0.00057599309, 0.581026
3.09400, 0.00053497570, 0.071701296, 5.71482e-05, 2.3592393, 0.00057599309, 0.581026
3.09500, 0.00053500705, 0.071156770, 5.69165e-05, 2.3623836, 0.00057599309, 0.581026
3.09600, 0.00053513594, 0.070478663, 5.65664e-05, 2.3651979, 0.00057599309, 0.581026
3.09700, 0.00053513806, 0.069954477, 5.63641e-05, 2.3686416, 0.00057599309, 0.581026
3.09800, 0.00053524173, 0.069453835, 5.61002e-05, 2.3706672, 0.00057599309, 0.581026
3.09900, 0.00053533463, 0.068766773, 5.57735e-05, 2.3741067, 0.00057599309, 0.581026
3.10000, 0.00053538707, 0.068347387, 5.55774e-05, 2.3762839, 0.00057599309, 0.581026
3.10100, 0.00053547564, 0.067755714, 5.52905e-05, 2.3792064, 0.00057599309, 0.581026
3.10200, 0.00053557150, 0.067126855, 5.49854e-05, 2.3823192, 0.00057599309, 0.581026
3.10300, 0.00053561130, 0.066575438, 5.47501e-05, 2.3856447, 0.00057599309, 0.581026
3.10400, 0.00053567434, 0.066019416, 5.44969e-05, 2.3887403, 0.00057599309, 0.581026
3.10500, 0.00053580151, 0.065536998, 5.42256e-05, 2.3905237, 0.00057599309, 0.581026
3.10600, 0.00053584383, 0.065058343, 5.40173e-05, 2.3933857, 0.00057599309, 0.581026
3.10700, 0.00053592416, 0.064524397, 5.37609e-05, 2.3961947, 0.00057599309, 0.581026
3.10800, 0.00053597388, 0.064019561, 5.35387e-05, 2.3992007, 0.00057599309, 0.581026
3.10900, 0.00053602926, 0.063593298, 5.33414e-05, 2.4015949, 0.00057599309, 0.581026
3.11000, 0.00053616692, 0.063068718, 5.30487e-05, 2.4036663, 0.00057599309, 0.581026
3.11100, 0.00053618422, 0.062650278, 5.28825e-05, 2.4065425, 0.00057599309, 0.581026
3.11200, 0.00053628470, 0.062169578, 5.26335e-05, 2.4088218, 0.00057599309, 0.581026
3.11300, 0.00053638915, 0.061724763, 5.23947e-05, 2.4108088, 0.00057599309, 0.581026
3.11400, 0.00053641222, 0.061303969, 5.22249e-05, 2.4136870, 0.00057599309, 0.581026
3.11500, 0.00053652369, 0.060824409, 5.19692e-05, 2.4158847, 0.00057599309, 0.581026
3.11600, 0.00053661685, 0.060330167, 5.17222e-05, 2.4184549, 0.00057599309, 0.581026
3.11700, 0.00053669071, 0.059935424, 5.15253e-05, 2.4205411, 0.00057599309, 0.581026
3.11800, 0.00053682511, 0.059416737, 5.12391e-05, 2.4228242, 0.00057599309, 0.581026
3.11900, 0.00053688738, 0.058906652, 5.10097e-05, 2.4260194, 0.00057599309, 0.581026
3.12000, 0.00053694529, 0.058479887, 5.08149e-05, 2.4286182, 0.00057599309, 0.581026
3.12100, 0.00053709102, 0.057983167, 5.05287e-05, 2.4306734, 0.00057599309, 0.581026
3.12200, 0.00053717560, 0.057518464, 5.03003e-05, 2.4332941, 0.00057599309, 0.581026
3.12300, 0.00053728834, 0.057033252, 5.00448e-05, 2.4357154, 0.00057599309, 0.581026
3.12400, 0.00053741066, 0.056603964, 4.98010e-05, 2.4376066, 0.00057599309, 0.581026
3.12500, 0.00053748261, 0.056232948, 4.96163e-05, 2.4396961, 0.00057599309, 0.581026
3.12600, 0.00053756697, 0.055841316, 4.94145e-05, 2.4418266, 0.00057599309, 0.581026
3.12700, 0.00053772923, 0.055310156, 4.91057e-05, 2.4440940, 0.00057599309, 0.581026
3.12800, 0.00053777300, 0.054987915, 4.89606e-05, 2.4461982, 0.00057599309, 0.581026
3.12900, 0.00053789382, 0.054530524, 4.87093e-05, 2.4484537, 0.00057599309, 0.581026
3.13000, 0.00053801572, 0.054073676, 4.84581e-05, 2.4507053, 0.00057599309, 0.581026
3.13100, 0.00053807987, 0.053704072, 4.82812e-05, 2.4530122, 0.00057599309, 0.581026
3.13200, 0.00053823297, 0.053249102, 4.80067e-05, 2.4548938, 0.00057599309, 0.581026
3.13300, 0.00053830877, 0.052894037, 4.78268e-05, 2.4569485, 0.00057599309, 0.581026
3.13400, 0.00053843453, 0.052459333, 4.75807e-05, 2.4590657, 0.00057599309, 0.581026
3.13500, 0.00053855392, 0.051987745, 4.73274e-05, 2.4616129, 0.00057599309, 0.581026
3.13600, 0.00053866042, 0.051591661, 4.71103e-05, 2.4636867, 0.00057599309, 0.581026
3.13700, 0.00053876934, 0.051116742, 4.68645e-05, 2.4664643, 0.00057599309, 0.581026
3.13800, 0.00053895053, 0.050599676, 4.65485e-05, 2.4686840, 0.00057599309, 0.581026
3.13900, 0.00053901180, 0.050295901, 4.63988e-05, 2.4705980, 0.00057599309, 0.581026
3.14000, 0.00053916816, 0.049860090, 4.61299e-05, 2.4724686, 0.00057599309, 0.581026
3.14100, 0.00053924159, 0.049425270, 4.59268e-05, 2.4754694, 0.00057599309, 0.581026
3.14200, 0.00053935919, 0.049080227, 4.57191e-05, 2.4770758, 0.00057599309, 0.581026
3.14300, 0.00053947802, 0.048670303, 4.54892e-05, 2.4792817, 0.00057599309, 0.581026
3.14400, 0.00053956899, 0.048287783, 4.52908e-05, 2.4816277, 0.00057599309, 0.581026
3.14500, 0.00053967220, 0.047935806, 4.50930e-05, 2.4835436, 0.00057599309, 0.581026
3.14600, 0.00053981989, 0.047494680, 4.48300e-05, 2.4857457, 0.00057599309, 0.581026
3.14700, 0.00053992758, 0.047162078, 4.46353e-05, 2.4874599, 0.00057599309, 0.581026
3.14800, 0.00054003332, 0.046810560, 4.44361e-05, 2.4894006, 0.00057599309, 0.581026
3.14900, 0.00054020900, 0.046311121, 4.41333e-05, 2.4918373, 0.00057599309, 0.581026
3.15000, 0.00054027977, 0.046003673, 4.39763e-05, 2.4938858, 0.00057599309, 0.581026
3.15100, 0.00054045191, 0.045549091, 4.36911e-05, 2.4960005, 0.00057599309, 0.581026
3.15200, 0.00054061437, 0.045105789, 4.34177e-05, 2.4981620, 0.00057599309, 0.581026
3.15300, 0.00054068484, 0.044707466, 4.32327e-05, 2.5011776, 0.00057599309, 0.581026
3.15400, 0.00054085010, 0.044323053, 4.29761e-05, 2.5027788, 0.00057599309, 0.581026
3.15500, 0.00054100828, 0.043867376, 4.27022e-05, 2.5052373, 0.00057599309, 0.581026
3.15600, 0.00054108473, 0.043507069, 4.25257e-05, 2.5078619, 0.00057599309, 0.581026
3.15700, 0.00054128874, 0.043111965, 4.22353e-05, 2.5090964, 0.00057599309, 0.581026
3.15800, 0.00054140461, 0.042714600, 4.20145e-05, 2.5116441, 0.00057599309, 0.581026
3.15900, 0.00054152290, 0.042416245, 4.18241e-05, 2.5131199, 0.00057599309, 0.581026
3.16000, 0.00054169301, 0.041937023, 4.15344e-05, 2.5158103, 0.00057599309, 0.581026
3.16100, 0.00054178604, 0.041693203, 4.13827e-05, 2.5170753, 0.00057599309, 0.581026
3.16200, 0.00054193958, 0.041357227, 4.11520e-05, 2.5185177, 0.00057599309, 0.581026
3.16300, 0.00054214161, 0.040992327, 4.08727e-05, 2.5196087, 0.00057599309, 0.581026
3.16400, 0.00054225584, 0.040654965, 4.06734e-05, 2.5216768, 0.00057599309, 0.581026
3.16500, 0.00054242026, 0.040299986, 4.04289e-05, 2.5232065, 0.00057599309, 0.581026
3.16600, 0.00054259214, 0.039943345, 4.01771e-05, 2.5246971, 0.00057599309, 0.581026
3.16700, 0.00054272727, 0.039645199, 3.99736e-05, 2.5260856, 0.00057599309, 0.581026
3.16800, 0.00054290466, 0.039218824, 3.96959e-05, 2.5283220, 0.00057599309, 0.581026
3.16900, 0.00054309238, 0.038826171, 3.94201e-05, 2.5300691, 0.00057599309, 0.581026
3.17000, 0.00054320543, 0.038553420, 3.92427e-05, 2.5315569, 0.00057599309, 0.581026
3.17100, 0.00054341067, 0.038075715, 3.89276e-05, 2.5340431, 0.00057599309, 0.581026
3.17200, 0.00054357532, 0.037767570, 3.86966e-05, 2.5352485, 0.00057599309, 0.581026
3.17300, 0.00054375640, 0.037468035, 3.84557e-05, 2.5360911, 0.00057599309, 0.581026
3.17400, 0.00054396934, 0.037072930, 3.81586e-05, 2.5376356, 0.00057599309, 0.581026
3.17500, 0.00054409730, 0.036779083, 3.79634e-05, 2.5392315, 0.00057599309, 0.581026
3.17600, 0.00054433370, 0.036469799, 3.76736e-05, 2.5394285, 0.00057599309, 0.581026
3.17700, 0.00054455925, 0.036166113, 3.73942e-05, 2.5397370, 0.00057599309, 0.581026
3.17800, 0.00054467723, 0.035889767, 3.72124e-05, 2.5413325, 0.00057599309, 0.581026
3.17900, 0.00054492352, 0.035475418, 3.68824e-05, 2.5427096, 0.00057599309, 0.581026
3.18000, 0.00054513930, 0.035249509, 3.66345e-05, 2.5422480, 0.00057599309, 0.581026
3.18100, 0.00054532207, 0.035005115, 3.64079e-05, 2.5425394, 0.00057599309, 0.581026
3.18200, 0.00054552008, 0.034649063, 3.61354e-05, 2.5439875, 0.00057599309, 0.581026
3.18300, 0.00054570269, 0.034280621, 3.58729e-05, 2.5458219, 0.00057599309, 0.581026
3.18400, 0.00054594416, 0.033936296, 3.55676e-05, 2.5465105, 0.00057599309, 0.581026
3.18500, 0.00054613573, 0.033583120, 3.53015e-05, 2.5480998, 0.00057599309, 0.581026
3.18600, 0.00054635591, 0.033220805, 3.50088e-05, 2.5493901, 0.00057599309, 0.581026
3.18700, 0.00054653592, 0.032849055, 3.47474e-05, 2.5514448, 0.00057599309, 0.581026
3.18800, 0.00054683266, 0.032500573, 3.43947e-05, 2.5513985, 0.00057599309, 0.581026
3.18900, 0.00054701836, 0.032285251, 3.41750e-05, 2.5513256, 0.00057599309, 0.581026
3.19000, 0.00054724335, 0.031910077, 3.38744e-05, 2.5528066, 0.00057599309, 0.581026
3.19100, 0.00054751143, 0.031485029, 3.35235e-05, 2.5542791, 0.00057599309, 0.581026
3.19200, 0.00054765369, 0.031304639, 3.33498e-05, 2.5544922, 0.00057599309, 0.581026
3.19300, 0.00054793275, 0.030977286, 3.30182e-05, 2.5544889, 0.00057599309, 0.581026
3.19400, 0.00054809695, 0.030644495, 3.27820e-05, 2.5564449, 0.00057599309, 0.581026
3.19500, 0.00054829465, 0.030363074, 3.25318e-05, 2.5571973, 0.00057599309, 0.581026
3.19600, 0.00054859334, 0.030108735, 3.22056e-05, 2.5558355, 0.00057599309, 0.581026
3.19700, 0.00054874318, 0.029778251, 3.19814e-05, 2.5581110, 0.00057599309, 0.581026
3.19800, 0.00054900480, 0.029514836, 3.16832e-05, 2.5575283, 0.00057599309, 0.581026
3.19900, 0.00054924547, 0.029144919, 3.13709e-05, 2.5588915, 0.00057599309, 0.581026
3.20000, 0.00054944636, 0.028875729, 3.11226e-05, 2.5594261, 0.00057599309, 0.581026
3.20100, 0.00054971512, 0.028593583, 3.08126e-05, 2.5590189, 0.00057599309, 0.581026
3.20200, 0.00054995072, 0.028133301, 3.04781e-05, 2.5619214, 0.00057599309, 0.581026
3.20300, 0.00055017143, 0.027933413, 3.02323e-05, 2.5611436, 0.00057599309, 0.581026
3.20400, 0.00055040160, 0.027553091, 2.99262e-05, 2.5629699, 0.00057599309, 0.581026
3.20500, 0.00055071469, 0.027171833, 2.95501e-05, 2.5633419, 0.00057599309, 0.581026
3.20600, 0.00055087486, 0.026973661, 2.93559e-05, 2.5636361, 0.00057599309, 0.581026
3.20700, 0.00055116186, 0.026626669, 2.90119e-05, 2.5639565, 0.00057599309, 0.581026
3.20800, 0.00055139913, 0.026372472, 2.87365e-05, 2.5637276, 0.00057599309, 0.581026
3.20900, 0.00055158535, 0.026145458, 2.85121e-05, 2.5640118, 0.00057599309, 0.581026
3.21000, 0.00055187681, 0.025754943, 2.81503e-05, 2.5650756, 0.00057599309, 0.581026
3.21100, 0.00055208138, 0.025576103, 2.79248e-05, 2.5641987, 0.00057599309, 0.581026
3.21200, 0.00055237539, 0.025294868, 2.75933e-05, 2.5633504, 0.00057599309, 0.581026
3.21300, 0.00055264346, 0.024972308, 2.72710e-05, 2.5637443, 0.00057599309, 0.581026
3.21400, 0.00055285235, 0.024821468, 2.70493e-05, 2.5623071, 0.00057599309, 0.581026
3.21500, 0.00055314044, 0.024436634, 2.66919e-05, 2.5633972, 0.00057599309, 0.581026
3.21600, 0.00055339185, 0.024102593, 2.63806e-05, 2.5643423, 0.00057599309, 0.581026
3.21700, 0.00055362523, 0.023866484, 2.61142e-05, 2.5638468, 0.00057599309, 0.581026
3.21800, 0.00055386842, 0.023465997, 2.57910e-05, 2.5661829, 0.00057599309, 0.581026
3.21900, 0.00055415333, 0.023125673, 2.54495e-05, 2.5666311, 0.00057599309, 0.581026
3.22000, 0.00055439259, 0.022884695, 2.51758e-05, 2.5661743, 0.00057599309, 0.581026
3.22100, 0.00055466137, 0.022535596, 2.48453e-05, 2.5671623, 0.00057599309, 0.581026
3.22200, 0.00055493267, 0.022296263, 2.45439e-05, 2.5660489, 0.00057599309, 0.581026
3.22300, 0.00055518034, 0.022054333, 2.42633e-05, 2.5653784, 0.00057599309, 0.581026
3.22400, 0.00055550024, 0.021623068, 2.38650e-05, 2.5669425, 0.00057599309, 0.581026
3.22500, 0.00055569426, 0.021465357, 2.36543e-05, 2.5657866, 0.00057599309, 0.581026
3.22600, 0.00055597378, 0.021213956, 2.33425e-05, 2.5646665, 0.00057599309, 0.581026
3.22700, 0.00055628071, 0.020828305, 2.29692e-05, 2.5655983, 0.00057599309, 0.581026
3.22800, 0.00055645509, 0.020638553, 2.27660e-05, 2.5655067, 0.00057599309, 0.581026
3.22900, 0.00055677069, 0.020309562, 2.24008e-05, 2.5651543, 0.00057599309, 0.581026
3.23000, 0.00055703947, 0.020010931, 2.20841e-05, 2.5652702, 0.00057599309, 0.581026
3.23100, 0.00055726354, 0.019873435, 2.18524e-05, 2.5629575, 0.00057599309, 0.581026
3.23200, 0.00055757067, 0.019485729, 2.14784e-05, 2.5639827, 0.00057599309, 0.581026
3.23300, 0.00055779538, 0.019208439, 2.12066e-05, 2.5646193, 0.00057599309, 0.581026
