time(s), Phieff(Wb), Thetaeff(rad), Phipl(Wb), DelTheta(rad), Phiext(Wb), Thetaext(rad)
3.00000, 0.00050526372, 0.072053209, 8.07028e-05, 2.6267231, 0.00057599309, 0.581026
3.00100, 0.00050551984, 0.071880788, 8.04382e-05, 2.6260192, 0.00057599309, 0.581026
3.00200, 0.00050597175, 0.071612217, 7.99810e-05, 2.6245673, 0.00057599309, 0.581026
3.00300, 0.00050637429, 0.071498834, 7.96063e-05, 2.6225860, 0.00057599309, 0.581026
3.00400, 0.00050671275, 0.071630545, 7.93515e-05, 2.6196592, 0.00057599309, 0.581026
3.00500, 0.00050716428, 0.071631379, 7.89662e-05, 2.6166852, 0.00057599309, 0.581026
3.00600, 0.00050759112, 0.071654692, 7.86086e-05, 2.6137235, 0.00057599309, 0.581026
3.00700, 0.00050809641, 0.071762837, 7.82079e-05, 2.6097353, 0.00057599309, 0.581026
3.00800, 0.00050865743, 0.071784452, 7.77380e-05, 2.6058018, 0.00057599309, 0.581026
3.00900, 0.00050916840, 0.071966216, 7.73550e-05, 2.6012809, 0.00057599309, 0.581026
3.01000, 0.00050969220, 0.072095416, 7.69486e-05, 2.5969136, 0.00057599309, 0.581026
3.01100, 0.00051019098, 0.072226867, 7.65655e-05, 2.5926612, 0.00057599309, 0.581026
3.01200, 0.00051065705, 0.072468467, 7.62419e-05, 2.5879839, 0.00057599309, 0.581026
3.01300, 0.00051111026, 0.072521135, 7.58777e-05, 2.5844200, 0.00057599309, 0.581026
3.01400, 0.00051157918, 0.072632104, 7.55178e-05, 2.5803793, 0.00057599309, 0.581026
3.01500, 0.00051191055, 0.072854355, 7.53057e-05, 2.5766780, 0.00057599309, 0.581026
3.01600, 0.00051232994, 0.072889552, 7.49677e-05, 2.5733650, 0.00057599309, 0.581026
3.01700, 0.00051265140, 0.073025294, 7.47402e-05, 2.5701945, 0.00057599309, 0.581026
3.01800, 0.00051300945, 0.073134683, 7.44763e-05, 2.5668638, 0.00057599309, 0.581026
3.01900, 0.00051335105, 0.073149361, 7.41991e-05, 2.5641763, 0.00057599309, 0.581026
3.02000, 0.00051363008, 0.073278926, 7.40071e-05, 2.5613024, 0.00057599309, 0.581026
3.02100, 0.00051391553, 0.073373303, 7.38007e-05, 2.5585535, 0.00057599309, 0.581026
3.02200, 0.00051424155, 0.073356226, 7.35283e-05, 2.5561187, 0.00057599309, 0.581026
3.02300, 0.00051449240, 0.073393628, 7.33342e-05, 2.5539386, 0.00057599309, 0.581026
3.02400, 0.00051477529, 0.073366798, 7.30953e-05, 2.5518611, 0.00057599309, 0.581026
3.02500, 0.00051506751, 0.073305786, 7.28386e-05, 2.5498989, 0.00057599309, 0.581026
3.02600, 0.00051532773, 0.073370859, 7.26462e-05, 2.5474460, 0.00057599309, 0.581026
3.02700, 0.00051557986, 0.073309854, 7.24226e-05, 2.5457809, 0.00057599309, 0.581026
3.02800, 0.00051588686, 0.073339961, 7.21827e-05, 2.5431221, 0.00057599309, 0.581026
3.02900, 0.00051612901, 0.073449694, 7.20193e-05, 2.5405243, 0.00057599309, 0.581026
3.03000, 0.00051637744, 0.073341586, 7.17856e-05, 2.5391204, 0.00057599309, 0.581026
3.03100, 0.00051663108, 0.073300086, 7.15681e-05, 2.5372760, 0.00057599309, 0.581026
3.03200, 0.00051682605, 0.073325314, 7.14183e-05, 2.5355213, 0.00057599309, 0.581026
3.03300, 0.00051711157, 0.073312297, 7.11843e-05, 2.5332248, 0.00057599309, 0.581026
3.03400, 0.00051734116, 0.073291950, 7.09930e-05, 2.5314324, 0.00057599309, 0.581026
3.03500, 0.00051758499, 0.073234946, 7.07793e-05, 2.5297239, 0.00057599309, 0.581026
3.03600, 0.00051784069, 0.073191762, 7.05612e-05, 2.5278108, 0.00057599309, 0.581026
3.03700, 0.00051805517, 0.073189318, 7.03884e-05, 2.5260079, 0.00057599309, 0.581026
3.03800, 0.00051831466, 0.073010586, 7.01249e-05, 2.5248563, 0.00057599309, 0.581026
3.03900, 0.00051857323, 0.072916560, 6.98887e-05, 2.5231993, 0.00057599309, 0.581026
3.04000, 0.00051878939, 0.072865814, 6.97001e-05, 2.5216396, 0.00057599309, 0.581026
3.04100, 0.00051905301, 0.072720759, 6.94443e-05, 2.5202220, 0.00057599309, 0.581026
3.04200, 0.00051932106, 0.072556496, 6.91791e-05, 2.5188701, 0.00057599309, 0.581026
3.04300, 0.00051956073, 0.072433889, 6.89496e-05, 2.5175092, 0.00057599309, 0.581026
3.04400, 0.00051985000, 0.072233476, 6.86564e-05, 2.5161684, 0.00057599309, 0.581026
3.04500, 0.00052013287, 0.072142571, 6.84027e-05, 2.5142162, 0.00057599309, 0.581026
3.04600, 0.00052039031, 0.071928903, 6.81304e-05, 2.5132248, 0.00057599309, 0.581026
3.04700, 0.00052066424, 0.071769491, 6.78626e-05, 2.5117414, 0.00057599309, 0.581026
3.04800, 0.00052086865, 0.071717940, 6.76843e-05, 2.5102151, 0.00057599309, 0.581026
3.04900, 0.00052117514, 0.071547210, 6.73873e-05, 2.5084870, 0.00057599309, 0.581026
3.05000, 0.00052150459, 0.071417026, 6.70852e-05, 2.5062873, 0.00057599309, 0.581026
3.05100, 0.00052171448, 0.071307510, 6.68845e-05, 2.5050371, 0.00057599309, 0.581026
3.05200, 0.00052200866, 0.071152575, 6.66025e-05, 2.5032895, 0.00057599309, 0.581026
3.05300, 0.00052229675, 0.070963681, 6.63149e-05, 2.5017884, 0.00057599309, 0.581026
3.05400, 0.00052255135, 0.070818104, 6.60673e-05, 2.5003269, 0.00057599309, 0.581026
3.05500, 0.00052282868, 0.070647746, 6.57944e-05, 2.4987876, 0.00057599309, 0.581026
3.05600, 0.00052309335, 0.070382953, 6.55006e-05, 2.4979565, 0.00057599309, 0.581026
3.05700, 0.00052336592, 0.070186891, 6.52232e-05, 2.4966047, 0.00057599309, 0.581026
3.05800, 0.00052365875, 0.069885373, 6.48955e-05, 2.4957216, 0.00057599309, 0.581026
3.05900, 0.00052391199, 0.069650240, 6.46205e-05, 2.4947879, 0.00057599309, 0.581026
3.06000, 0.00052415001, 0.069416896, 6.43578e-05, 2.4939878, 0.00057599309, 0.581026
3.06100, 0.00052452511, 0.069133595, 6.39713e-05, 2.4921753, 0.00057599309, 0.581026
3.06200, 0.00052475378, 0.068936586, 6.37285e-05, 2.4912036, 0.00057599309, 0.581026
3.06300, 0.00052504326, 0.068595678, 6.33904e-05, 2.4905737, 0.00057599309, 0.581026
3.06400, 0.00052531581, 0.068364836, 6.31016e-05, 2.4893892, 0.00057599309, 0.581026
3.06500, 0.00052552506, 0.068129726, 6.28608e-05, 2.4888542, 0.00057599309, 0.581026
3.06600, 0.00052585372, 0.067863911, 6.25170e-05, 2.4873188, 0.00057599309, 0.581026
3.06700, 0.00052607755, 0.067552045, 6.22397e-05, 2.4871314, 0.00057599309, 0.581026
3.06800, 0.00052636147, 0.067379631, 6.19615e-05, 2.4854109, 0.00057599309, 0.581026
3.06900, 0.00052660015, 0.067159727, 6.17031e-05, 2.4844496, 0.00057599309, 0.581026
3.07000, 0.00052683608, 0.066857956, 6.14195e-05, 2.4840639, 0.00057599309, 0.581026
3.07100, 0.00052711195, 0.066644385, 6.11339e-05, 2.4826744, 0.00057599309, 0.581026
3.07200, 0.00052738508, 0.066342980, 6.08216e-05, 2.4818904, 0.00057599309, 0.581026
3.07300, 0.00052760477, 0.066068187, 6.05599e-05, 2.4814704, 0.00057599309, 0.581026
3.07400, 0.00052783178, 0.065696076, 6.02598e-05, 2.4816444, 0.00057599309, 0.581026
3.07500, 0.00052808041, 0.065383002, 5.99622e-05, 2.4811957, 0.00057599309, 0.581026
3.07600, 0.00052831189, 0.065214016, 5.97259e-05, 2.4799292, 0.00057599309, 0.581026
3.07700, 0.00052856272, 0.064858168, 5.94129e-05, 2.4797328, 0.00057599309, 0.581026
3.07800, 0.00052886151, 0.064425416, 5.90368e-05, 2.4795668, 0.00057599309, 0.581026
3.07900, 0.00052905578, 0.064180538, 5.88044e-05, 2.4792035, 0.00057599309, 0.581026
3.08000, 0.00052931345, 0.063897394, 5.85092e-05, 2.4784429, 0.00057599309, 0.581026
3.08100, 0.00052954593, 0.063537933, 5.82090e-05, 2.4784710, 0.00057599309, 0.581026
3.08200, 0.00052975502, 0.063274547, 5.79587e-05, 2.4780772, 0.00057599309, 0.581026
3.08300, 0.00053004588, 0.062937133, 5.76200e-05, 2.4773219, 0.00057599309, 0.581026
3.08400, 0.00053020696, 0.062783420, 5.74437e-05, 2.4766581, 0.00057599309, 0.581026
3.08500, 0.00053045715, 0.062436666, 5.71335e-05, 2.4764068, 0.00057599309, 0.581026
3.08600, 0.00053071625, 0.062018774, 5.67925e-05, 2.4765756, 0.00057599309, 0.581026
3.08700, 0.00053093362, 0.061775953, 5.65425e-05, 2.4759309, 0.00057599309, 0.581026
3.08800, 0.00053120887, 0.061342873, 5.61837e-05, 2.4760373, 0.00057599309, 0.581026
3.08900, 0.00053141168, 0.060995765, 5.59103e-05, 2.4763186, 0.00057599309, 0.581026
3.09000, 0.00053164265, 0.060613222, 5.56030e-05, 2.4765537, 0.00057599309, 0.581026
3.09100, 0.00053190821, 0.060207460, 5.52605e-05, 2.4765871, 0.00057599309, 0.581026
3.09200, 0.00053209152, 0.059824869, 5.49900e-05, 2.4773824, 0.00057599309, 0.581026
3.09300, 0.00053231648, 0.059481945, 5.47005e-05, 2.4774048, 0.00057599309, 0.581026
3.09400, 0.00053255910, 0.059078515, 5.43771e-05, 2.4776876, 0.00057599309, 0.581026
3.09500, 0.00053284222, 0.058691625, 5.40272e-05, 2.4773901, 0.00057599309, 0.581026
3.09600, 0.00053303267, 0.058314443, 5.37529e-05, 2.4780934, 0.00057599309, 0.581026
3.09700, 0.00053326267, 0.057850335, 5.34184e-05, 2.4790323, 0.00057599309, 0.581026
3.09800, 0.00053350057, 0.057487350, 5.31122e-05, 2.4790790, 0.00057599309, 0.581026
3.09900, 0.00053371284, 0.057097003, 5.28159e-05, 2.4796722, 0.00057599309, 0.581026
3.10000, 0.00053396098, 0.056744970, 5.25051e-05, 2.4795244, 0.00057599309, 0.581026
3.10100, 0.00053414233, 0.056376994, 5.22410e-05, 2.4803078, 0.00057599309, 0.581026
3.10200, 0.00053441978, 0.056017250, 5.19041e-05, 2.4798915, 0.00057599309, 0.581026
3.10300, 0.00053468146, 0.055619810, 5.15667e-05, 2.4799769, 0.00057599309, 0.581026
3.10400, 0.00053484619, 0.055313390, 5.13357e-05, 2.4804905, 0.00057599309, 0.581026
3.10500, 0.00053511919, 0.054840226, 5.09645e-05, 2.4810670, 0.00057599309, 0.581026
3.10600, 0.00053534016, 0.054460488, 5.06658e-05, 2.4814990, 0.00057599309, 0.581026
3.10700, 0.00053557854, 0.054130994, 5.03691e-05, 2.4813292, 0.00057599309, 0.581026
3.10800, 0.00053586244, 0.053656302, 4.99888e-05, 2.4818122, 0.00057599309, 0.581026
3.10900, 0.00053604959, 0.053316254, 4.97290e-05, 2.4823701, 0.00057599309, 0.581026
3.11000, 0.00053629570, 0.052785695, 4.93602e-05, 2.4838197, 0.00057599309, 0.581026
3.11100, 0.00053654915, 0.052411567, 4.90365e-05, 2.4838746, 0.00057599309, 0.581026
3.11200, 0.00053675803, 0.052105755, 4.87709e-05, 2.4838913, 0.00057599309, 0.581026
3.11300, 0.00053702260, 0.051620547, 4.84022e-05, 2.4847715, 0.00057599309, 0.581026
3.11400, 0.00053726433, 0.051237918, 4.80852e-05, 2.4850600, 0.00057599309, 0.581026
3.11500, 0.00053747450, 0.050871175, 4.77983e-05, 2.4856207, 0.00057599309, 0.581026
3.11600, 0.00053770608, 0.050423779, 4.74680e-05, 2.4866355, 0.00057599309, 0.581026
3.11700, 0.00053797072, 0.050120126, 4.71584e-05, 2.4859536, 0.00057599309, 0.581026
3.11800, 0.00053819568, 0.049782295, 4.68692e-05, 2.4860866, 0.00057599309, 0.581026
3.11900, 0.00053848537, 0.049340744, 4.64948e-05, 2.4863184, 0.00057599309, 0.581026
3.12000, 0.00053871625, 0.048898872, 4.61666e-05, 2.4873469, 0.00057599309, 0.581026
3.12100, 0.00053890702, 0.048497252, 4.58840e-05, 2.4885357, 0.00057599309, 0.581026
3.12200, 0.00053921654, 0.048094761, 4.55062e-05, 2.4881857, 0.00057599309, 0.581026
3.12300, 0.00053941196, 0.047685124, 4.52167e-05, 2.4894350, 0.00057599309, 0.581026
3.12400, 0.00053970881, 0.047269419, 4.48442e-05, 2.4894044, 0.00057599309, 0.581026
3.12500, 0.00053997978, 0.046827115, 4.44844e-05, 2.4899619, 0.00057599309, 0.581026
3.12600, 0.00054016762, 0.046489742, 4.42242e-05, 2.4906766, 0.00057599309, 0.581026
3.12700, 0.00054042503, 0.046061963, 4.38794e-05, 2.4913209, 0.00057599309, 0.581026
3.12800, 0.00054071065, 0.045626257, 4.35097e-05, 2.4916613, 0.00057599309, 0.581026
3.12900, 0.00054089611, 0.045289159, 4.32519e-05, 2.4924305, 0.00057599309, 0.581026
3.13000, 0.00054121009, 0.044768773, 4.28317e-05, 2.4932568, 0.00057599309, 0.581026
3.13100, 0.00054141199, 0.044464078, 4.25711e-05, 2.4935005, 0.00057599309, 0.581026
3.13200, 0.00054164043, 0.044089716, 4.22662e-05, 2.4940984, 0.00057599309, 0.581026
3.13300, 0.00054191962, 0.043748964, 4.19327e-05, 2.4936016, 0.00057599309, 0.581026
3.13400, 0.00054212674, 0.043390427, 4.16501e-05, 2.4943550, 0.00057599309, 0.581026
3.13500, 0.00054241844, 0.043087065, 4.13183e-05, 2.4932983, 0.00057599309, 0.581026
3.13600, 0.00054264316, 0.042762034, 4.10329e-05, 2.4934414, 0.00057599309, 0.581026
3.13700, 0.00054290784, 0.042381089, 4.06966e-05, 2.4936206, 0.00057599309, 0.581026
3.13800, 0.00054310377, 0.041992433, 4.04133e-05, 2.4948938, 0.00057599309, 0.581026
3.13900, 0.00054340117, 0.041651711, 4.00642e-05, 2.4941580, 0.00057599309, 0.581026
3.14000, 0.00054362994, 0.041347135, 3.97823e-05, 2.4940345, 0.00057599309, 0.581026
3.14100, 0.00054388267, 0.040951584, 3.94507e-05, 2.4945843, 0.00057599309, 0.581026
3.14200, 0.00054413765, 0.040613879, 3.91366e-05, 2.4944503, 0.00057599309, 0.581026
3.14300, 0.00054435805, 0.040285189, 3.88530e-05, 2.4947527, 0.00057599309, 0.581026
3.14400, 0.00054465127, 0.039968710, 3.85151e-05, 2.4937909, 0.00057599309, 0.581026
3.14500, 0.00054485839, 0.039607588, 3.82311e-05, 2.4946945, 0.00057599309, 0.581026
3.14600, 0.00054510830, 0.039358433, 3.79499e-05, 2.4936259, 0.00057599309, 0.581026
3.14700, 0.00054539835, 0.039005417, 3.76023e-05, 2.4931266, 0.00057599309, 0.581026
3.14800, 0.00054559850, 0.038804669, 3.73761e-05, 2.4922884, 0.00057599309, 0.581026
3.14900, 0.00054584320, 0.038567338, 3.71031e-05, 2.4911239, 0.00057599309, 0.581026
3.15000, 0.00054611755, 0.038230415, 3.67729e-05, 2.4906786, 0.00057599309, 0.581026
3.15100, 0.00054631269, 0.038091369, 3.65714e-05, 2.4891393, 0.00057599309, 0.581026
3.15200, 0.00054659138, 0.037759677, 3.62396e-05, 2.4885337, 0.00057599309, 0.581026
3.15300, 0.00054683567, 0.037475988, 3.59506e-05, 2.4879277, 0.00057599309, 0.581026
3.15400, 0.00054702699, 0.037185330, 3.57027e-05, 2.4882529, 0.00057599309, 0.581026
3.15500, 0.00054729654, 0.036913380, 3.53979e-05, 2.4870465, 0.00057599309, 0.581026
3.15600, 0.00054752611, 0.036603600, 3.51117e-05, 2.4870131, 0.00057599309, 0.581026
3.15700, 0.00054776236, 0.036294464, 3.48218e-05, 2.4868043, 0.00057599309, 0.581026
3.15800, 0.00054802910, 0.035981014, 3.45051e-05, 2.4861572, 0.00057599309, 0.581026
3.15900, 0.00054824886, 0.035668153, 3.42266e-05, 2.4863012, 0.00057599309, 0.581026
3.16000, 0.00054848360, 0.035440110, 3.39639e-05, 2.4850957, 0.00057599309, 0.581026
3.16100, 0.00054876487, 0.035105456, 3.36279e-05, 2.4844692, 0.00057599309, 0.581026
3.16200, 0.00054893996, 0.034861762, 3.34081e-05, 2.4844978, 0.00057599309, 0.581026
3.16300, 0.00054919815, 0.034552578, 3.30998e-05, 2.4839075, 0.00057599309, 0.581026
3.16400, 0.00054945389, 0.034224927, 3.27871e-05, 2.4836123, 0.00057599309, 0.581026
3.16500, 0.00054960204, 0.034039784, 3.26074e-05, 2.4833810, 0.00057599309, 0.581026
3.16600, 0.00054983769, 0.033691231, 3.23042e-05, 2.4837253, 0.00057599309, 0.581026
3.16700, 0.00055009238, 0.033455063, 3.20229e-05, 2.4821794, 0.00057599309, 0.581026
3.16800, 0.00055026001, 0.033317570, 3.18435e-05, 2.4809105, 0.00057599309, 0.581026
3.16900, 0.00055053265, 0.033031844, 3.15312e-05, 2.4796808, 0.00057599309, 0.581026
3.17000, 0.00055071860, 0.032761827, 3.12929e-05, 2.4798992, 0.00057599309, 0.581026
3.17100, 0.00055096420, 0.032518912, 3.10169e-05, 2.4785426, 0.00057599309, 0.581026
3.17200, 0.00055118758, 0.032272320, 3.07561e-05, 2.4777095, 0.00057599309, 0.581026
3.17300, 0.00055135885, 0.031915680, 3.05014e-05, 2.4794319, 0.00057599309, 0.581026
3.17400, 0.00055161197, 0.031664394, 3.02153e-05, 2.4780715, 0.00057599309, 0.581026
3.17500, 0.00055181296, 0.031344604, 2.99485e-05, 2.4787233, 0.00057599309, 0.581026
3.17600, 0.00055203135, 0.031123202, 2.97003e-05, 2.4775884, 0.00057599309, 0.581026
3.17700, 0.00055220110, 0.030741608, 2.94380e-05, 2.4798124, 0.00057599309, 0.581026
3.17800, 0.00055246840, 0.030443465, 2.91256e-05, 2.4788034, 0.00057599309, 0.581026
3.17900, 0.00055264244, 0.030181903, 2.89003e-05, 2.4791424, 0.00057599309, 0.581026
3.18000, 0.00055285031, 0.029886158, 2.86359e-05, 2.4793384, 0.00057599309, 0.581026
3.18100, 0.00055305208, 0.029607600, 2.83819e-05, 2.4794118, 0.00057599309, 0.581026
3.18200, 0.00055320222, 0.029425832, 2.82009e-05, 2.4790905, 0.00057599309, 0.581026
3.18300, 0.00055347073, 0.029189883, 2.79083e-05, 2.4770296, 0.00057599309, 0.581026
3.18400, 0.00055359380, 0.028863339, 2.77010e-05, 2.4795768, 0.00057599309, 0.581026
3.18500, 0.00055379850, 0.028593583, 2.74481e-05, 2.4794328, 0.00057599309, 0.581026
3.18600, 0.00055405652, 0.028264370, 2.71322e-05, 2.4791095, 0.00057599309, 0.581026
3.18700, 0.00055420200, 0.028067539, 2.69497e-05, 2.4791424, 0.00057599309, 0.581026
3.18800, 0.00055441072, 0.027757866, 2.66800e-05, 2.4795868, 0.00057599309, 0.581026
3.18900, 0.00055458393, 0.027422970, 2.64307e-05, 2.4812572, 0.00057599309, 0.581026
3.19000, 0.00055475456, 0.027198147, 2.62192e-05, 2.4811914, 0.00057599309, 0.581026
3.19100, 0.00055500857, 0.026865153, 2.59052e-05, 2.4810503, 0.00057599309, 0.581026
3.19200, 0.00055517927, 0.026602032, 2.56812e-05, 2.4816353, 0.00057599309, 0.581026
3.19300, 0.00055538040, 0.026295507, 2.54178e-05, 2.4823139, 0.00057599309, 0.581026
3.19400, 0.00055558064, 0.026008299, 2.51623e-05, 2.4826462, 0.00057599309, 0.581026
3.19500, 0.00055578604, 0.025766514, 2.49167e-05, 2.4821041, 0.00057599309, 0.581026
3.19600, 0.00055595032, 0.025480364, 2.46902e-05, 2.4833081, 0.00057599309, 0.581026
3.19700, 0.00055616327, 0.025179129, 2.44198e-05, 2.4836204, 0.00057599309, 0.581026
3.19800, 0.00055634341, 0.024917345, 2.41890e-05, 2.4840086, 0.00057599309, 0.581026
3.19900, 0.00055648065, 0.024693856, 2.40041e-05, 2.4848235, 0.00057599309, 0.581026
3.20000, 0.00055674293, 0.024400014, 2.36955e-05, 2.4838512, 0.00057599309, 0.581026
3.20100, 0.00055680678, 0.024270188, 2.36015e-05, 2.4846981, 0.00057599309, 0.581026
3.20200, 0.00055704548, 0.023983587, 2.33145e-05, 2.4841597, 0.00057599309, 0.581026
3.20300, 0.00055727995, 0.023683453, 2.30275e-05, 2.4839227, 0.00057599309, 0.581026
3.20400, 0.00055740453, 0.023531951, 2.28765e-05, 2.4837072, 0.00057599309, 0.581026
3.20500, 0.00055764869, 0.023184882, 2.25653e-05, 2.4841983, 0.00057599309, 0.581026
3.20600, 0.00055780811, 0.022947125, 2.23577e-05, 2.4847992, 0.00057599309, 0.581026
3.20700, 0.00055796167, 0.022685867, 2.21483e-05, 2.4859727, 0.00057599309, 0.581026
3.20800, 0.00055815972, 0.022418907, 2.19002e-05, 2.4861505, 0.00057599309, 0.581026
3.20900, 0.00055828775, 0.022151422, 2.17082e-05, 2.4882681, 0.00057599309, 0.581026
3.21000, 0.00055851767, 0.021812454, 2.14113e-05, 2.4890897, 0.00057599309, 0.581026
3.21100, 0.00055871673, 0.021520827, 2.11549e-05, 2.4897821, 0.00057599309, 0.581026
3.21200, 0.00055888017, 0.021351198, 2.09659e-05, 2.4889462, 0.00057599309, 0.581026
3.21300, 0.00055908407, 0.021070164, 2.07097e-05, 2.4892457, 0.00057599309, 0.581026
3.21400, 0.00055923351, 0.020808263, 2.05024e-05, 2.4907920, 0.00057599309, 0.581026
3.21500, 0.00055943629, 0.020658761, 2.02895e-05, 2.4882639, 0.00057599309, 0.581026
3.21600, 0.00055958146, 0.020391578, 2.00839e-05, 2.4900811, 0.00057599309, 0.581026
3.21700, 0.00055981962, 0.020135652, 1.98078e-05, 2.4888585, 0.00057599309, 0.581026
3.21800, 0.00055992123, 0.019888425, 1.96429e-05, 2.4916532, 0.00057599309, 0.581026
3.21900, 0.00056013690, 0.019674476, 1.93994e-05, 2.4900782, 0.00057599309, 0.581026
3.22000, 0.00056034200, 0.019445919, 1.91579e-05, 2.4892671, 0.00057599309, 0.581026
3.22100, 0.00056046259, 0.019202230, 1.89806e-05, 2.4913662, 0.00057599309, 0.581026
3.22200, 0.00056074374, 0.018958554, 1.86712e-05, 2.4886420, 0.00057599309, 0.581026
3.22300, 0.00056080330, 0.018667053, 1.85287e-05, 2.4938343, 0.00057599309, 0.581026
3.22400, 0.00056103671, 0.018471239, 1.82741e-05, 2.4913814, 0.00057599309, 0.581026
3.22500, 0.00056121403, 0.018168643, 1.80303e-05, 2.4933779, 0.00057599309, 0.581026
3.22600, 0.00056136598, 0.017934194, 1.78315e-05, 2.4943421, 0.00057599309, 0.581026
3.22700, 0.00056158817, 0.017612228, 1.75446e-05, 2.4954937, 0.00057599309, 0.581026
3.22800, 0.00056178694, 0.017325602, 1.72911e-05, 2.4963043, 0.00057599309, 0.581026
3.22900, 0.00056196668, 0.017076094, 1.70631e-05, 2.4969604, 0.00057599309, 0.581026
3.23000, 0.00056215368, 0.016766099, 1.68078e-05, 2.4991963, 0.00057599309, 0.581026
3.23100, 0.00056232006, 0.016500914, 1.65877e-05, 2.5006473, 0.00057599309, 0.581026
3.23200, 0.00056249880, 0.016322950, 1.63831e-05, 2.4994714, 0.00057599309, 0.581026
3.23300, 0.00056269597, 0.016109755, 1.61528e-05, 2.4985497, 0.00057599309, 0.581026
