time(s), Phieff(Wb), Thetaeff(rad), Phipl(Wb), DelTheta(rad), Phiext(Wb), Thetaext(rad)
3.00000, 0.00049366355, 0.051733632, 3.81255e-05, 3.9276210, 0.00052132116, -0.575905
3.00100, 0.00049381111, 0.051322807, 3.78777e-05, 3.9265859, 0.00052132116, -0.575905
3.00200, 0.00049400365, 0.051196005, 3.76978e-05, 3.9290303, 0.00052132116, -0.575905
3.00300, 0.00049408916, 0.050995275, 3.75672e-05, 3.9287753, 0.00052132116, -0.575905
3.00400, 0.00049426763, 0.050672688, 3.73280e-05, 3.9291302, 0.00052132116, -0.575905
3.00500, 0.00049439470, 0.050499409, 3.71773e-05, 3.9299110, 0.00052132116, -0.575905
3.00600, 0.00049451825, 0.050336193, 3.70336e-05, 3.9307512, 0.00052132116, -0.575905
3.00700, 0.00049467410, 0.050028432, 3.68154e-05, 3.9308200, 0.00052132116, -0.575905
3.00800, 0.00049482549, 0.049935378, 3.66760e-05, 3.9328573, 0.00052132116, -0.575905
3.00900, 0.00049490273, 0.049761929, 3.65608e-05, 3.9327048, 0.00052132116, -0.575905
3.01000, 0.00049508701, 0.049530119, 3.63493e-05, 3.9340681, 0.00052132116, -0.575905
3.01100, 0.00049516122, 0.049508445, 3.62898e-05, 3.9353214, 0.00052132116, -0.575905
3.01200, 0.00049531504, 0.049260918, 3.60942e-05, 3.9359545, 0.00052132116, -0.575905
3.01300, 0.00049546590, 0.049046200, 3.59125e-05, 3.9368589, 0.00052132116, -0.575905
3.01400, 0.00049555278, 0.048976850, 3.58268e-05, 3.9379047, 0.00052132116, -0.575905
3.01500, 0.00049568180, 0.048688676, 3.56351e-05, 3.9376866, 0.00052132116, -0.575905
3.01600, 0.00049588118, 0.048518147, 3.54346e-05, 3.9400060, 0.00052132116, -0.575905
3.01700, 0.00049595281, 0.048340850, 3.53216e-05, 3.9397066, 0.00052132116, -0.575905
3.01800, 0.00049610412, 0.048109636, 3.51341e-05, 3.9404991, 0.00052132116, -0.575905
3.01900, 0.00049627994, 0.047823723, 3.49097e-05, 3.9412451, 0.00052132116, -0.575905
3.02000, 0.00049638500, 0.047705129, 3.47939e-05, 3.9422097, 0.00052132116, -0.575905
3.02100, 0.00049653366, 0.047386587, 3.45772e-05, 3.9420890, 0.00052132116, -0.575905
3.02200, 0.00049667564, 0.047302205, 3.44481e-05, 3.9441849, 0.00052132116, -0.575905
3.02300, 0.00049681129, 0.047035478, 3.42579e-05, 3.9442981, 0.00052132116, -0.575905
3.02400, 0.00049693109, 0.046908539, 3.41291e-05, 3.9455184, 0.00052132116, -0.575905
3.02500, 0.00049705844, 0.046737898, 3.39792e-05, 3.9464522, 0.00052132116, -0.575905
3.02600, 0.00049719093, 0.046558946, 3.38236e-05, 3.9474410, 0.00052132116, -0.575905
3.02700, 0.00049732226, 0.046387024, 3.36709e-05, 3.9484726, 0.00052132116, -0.575905
3.02800, 0.00049746812, 0.046363879, 3.35612e-05, 3.9513530, 0.00052132116, -0.575905
3.02900, 0.00049758255, 0.046158947, 3.34081e-05, 3.9516925, 0.00052132116, -0.575905
3.03000, 0.00049774114, 0.046036065, 3.32544e-05, 3.9538585, 0.00052132116, -0.575905
3.03100, 0.00049785591, 0.045842677, 3.31052e-05, 3.9543377, 0.00052132116, -0.575905
3.03200, 0.00049798738, 0.045671973, 3.29528e-05, 3.9554290, 0.00052132116, -0.575905
3.03300, 0.00049812718, 0.045511112, 3.27986e-05, 3.9568272, 0.00052132116, -0.575905
3.03400, 0.00049823210, 0.045275994, 3.26416e-05, 3.9566773, 0.00052132116, -0.575905
3.03500, 0.00049836510, 0.045003887, 3.24514e-05, 3.9567440, 0.00052132116, -0.575905
3.03600, 0.00049849203, 0.044919018, 3.23329e-05, 3.9586692, 0.00052132116, -0.575905
3.03700, 0.00049857989, 0.044618022, 3.21636e-05, 3.9574251, 0.00052132116, -0.575905
3.03800, 0.00049876453, 0.044445299, 3.19739e-05, 3.9597401, 0.00052132116, -0.575905
3.03900, 0.00049886615, 0.044347260, 3.18686e-05, 3.9609965, 0.00052132116, -0.575905
3.04000, 0.00049901561, 0.044115406, 3.16818e-05, 3.9619028, 0.00052132116, -0.575905
3.04100, 0.00049914125, 0.043951564, 3.15364e-05, 3.9630204, 0.00052132116, -0.575905
3.04200, 0.00049922381, 0.043878246, 3.14530e-05, 3.9641245, 0.00052132116, -0.575905
3.04300, 0.00049938462, 0.043654826, 3.12613e-05, 3.9654075, 0.00052132116, -0.575905
3.04400, 0.00049950256, 0.043697145, 3.11965e-05, 3.9686398, 0.00052132116, -0.575905
3.04500, 0.00049960072, 0.043500219, 3.10574e-05, 3.9687758, 0.00052132116, -0.575905
3.04600, 0.00049970372, 0.043408290, 3.09534e-05, 3.9701875, 0.00052132116, -0.575905
3.04700, 0.00049985316, 0.043277603, 3.08035e-05, 3.9722787, 0.00052132116, -0.575905
3.04800, 0.00049996151, 0.043174155, 3.06921e-05, 3.9737225, 0.00052132116, -0.575905
3.04900, 0.00050007558, 0.042967893, 3.05385e-05, 3.9741513, 0.00052132116, -0.575905
3.05000, 0.00050021373, 0.042883165, 3.04138e-05, 3.9765411, 0.00052132116, -0.575905
3.05100, 0.00050033629, 0.042563584, 3.02131e-05, 3.9759287, 0.00052132116, -0.575905
3.05200, 0.00050048551, 0.042464010, 3.00756e-05, 3.9784557, 0.00052132116, -0.575905
3.05300, 0.00050057284, 0.042365611, 2.99799e-05, 3.9794761, 0.00052132116, -0.575905
3.05400, 0.00050070725, 0.042110115, 2.97952e-05, 3.9799071, 0.00052132116, -0.575905
3.05500, 0.00050087648, 0.041882966, 2.95969e-05, 3.9815156, 0.00052132116, -0.575905
3.05600, 0.00050097447, 0.041868728, 2.95252e-05, 3.9837896, 0.00052132116, -0.575905
3.05700, 0.00050111347, 0.041608747, 2.93351e-05, 3.9842935, 0.00052132116, -0.575905
3.05800, 0.00050124542, 0.041495394, 2.92045e-05, 3.9863290, 0.00052132116, -0.575905
3.05900, 0.00050135113, 0.041378845, 2.90904e-05, 3.9876756, 0.00052132116, -0.575905
3.06000, 0.00050147061, 0.041264862, 2.89674e-05, 3.9893940, 0.00052132116, -0.575905
3.06100, 0.00050153231, 0.041167941, 2.88905e-05, 3.9898683, 0.00052132116, -0.575905
3.06200, 0.00050168866, 0.041024312, 2.87325e-05, 3.9922344, 0.00052132116, -0.575905
3.06300, 0.00050179962, 0.040867053, 2.85998e-05, 3.9932820, 0.00052132116, -0.575905
3.06400, 0.00050188708, 0.040872891, 2.85432e-05, 3.9956167, 0.00052132116, -0.575905
3.06500, 0.00050201321, 0.040560998, 2.83421e-05, 3.9952503, 0.00052132116, -0.575905
3.06600, 0.00050213995, 0.040388651, 2.81935e-05, 3.9965692, 0.00052132116, -0.575905
3.06700, 0.00050224132, 0.040228911, 2.80664e-05, 3.9973712, 0.00052132116, -0.575905
3.06800, 0.00050236811, 0.040046204, 2.79133e-05, 3.9985694, 0.00052132116, -0.575905
3.06900, 0.00050250595, 0.039816272, 2.77353e-05, 3.9995157, 0.00052132116, -0.575905
3.07000, 0.00050259581, 0.039685782, 2.76272e-05, 4.0003926, 0.00052132116, -0.575905
3.07100, 0.00050271173, 0.039446194, 2.74604e-05, 4.0006519, 0.00052132116, -0.575905
3.07200, 0.00050284335, 0.039270476, 2.73064e-05, 4.0020951, 0.00052132116, -0.575905
3.07300, 0.00050291941, 0.039113790, 2.71972e-05, 4.0022800, 0.00052132116, -0.575905
3.07400, 0.00050311219, 0.038945761, 2.70061e-05, 4.0055491, 0.00052132116, -0.575905
3.07500, 0.00050316688, 0.038867611, 2.69411e-05, 4.0061326, 0.00052132116, -0.575905
3.07600, 0.00050328533, 0.038700052, 2.67993e-05, 4.0073703, 0.00052132116, -0.575905
3.07700, 0.00050340139, 0.038550328, 2.66657e-05, 4.0087692, 0.00052132116, -0.575905
3.07800, 0.00050347814, 0.038570430, 2.66229e-05, 4.0111900, 0.00052132116, -0.575905
3.07900, 0.00050362359, 0.038288072, 2.64204e-05, 4.0118242, 0.00052132116, -0.575905
3.08000, 0.00050375794, 0.038219497, 2.63070e-05, 4.0148416, 0.00052132116, -0.575905
3.08100, 0.00050382953, 0.038091369, 2.62112e-05, 4.0152954, 0.00052132116, -0.575905
3.08200, 0.00050395471, 0.037893645, 2.60534e-05, 4.0164169, 0.00052132116, -0.575905
3.08300, 0.00050408872, 0.037715442, 2.58985e-05, 4.0180956, 0.00052132116, -0.575905
3.08400, 0.00050421126, 0.037598286, 2.57734e-05, 4.0201938, 0.00052132116, -0.575905
3.08500, 0.00050432884, 0.037423454, 2.56308e-05, 4.0214731, 0.00052132116, -0.575905
3.08600, 0.00050447923, 0.037316564, 2.54923e-05, 4.0245899, 0.00052132116, -0.575905
3.08700, 0.00050453003, 0.037006937, 2.53397e-05, 4.0221110, 0.00052132116, -0.575905
3.08800, 0.00050469882, 0.036845487, 2.51683e-05, 4.0251153, 0.00052132116, -0.575905
3.08900, 0.00050478998, 0.036701195, 2.50544e-05, 4.0260318, 0.00052132116, -0.575905
3.09000, 0.00050494102, 0.036544919, 2.48963e-05, 4.0286031, 0.00052132116, -0.575905
3.09100, 0.00050507815, 0.036310885, 2.47180e-05, 4.0297817, 0.00052132116, -0.575905
3.09200, 0.00050513847, 0.036289535, 2.46711e-05, 4.0313767, 0.00052132116, -0.575905
3.09300, 0.00050524902, 0.036146324, 2.45443e-05, 4.0329242, 0.00052132116, -0.575905
3.09400, 0.00050536200, 0.036032341, 2.44282e-05, 4.0349791, 0.00052132116, -0.575905
3.09500, 0.00050543218, 0.035878137, 2.43230e-05, 4.0351341, 0.00052132116, -0.575905
3.09600, 0.00050559674, 0.035763301, 2.41732e-05, 4.0388286, 0.00052132116, -0.575905
3.09700, 0.00050567428, 0.035689875, 2.40952e-05, 4.0403284, 0.00052132116, -0.575905
3.09800, 0.00050581217, 0.035527475, 2.39448e-05, 4.0426135, 0.00052132116, -0.575905
3.09900, 0.00050592936, 0.035268109, 2.37687e-05, 4.0429148, 0.00052132116, -0.575905
3.10000, 0.00050602163, 0.035227515, 2.36937e-05, 4.0453530, 0.00052132116, -0.575905
3.10100, 0.00050614106, 0.035027251, 2.35405e-05, 4.0465902, 0.00052132116, -0.575905
3.10200, 0.00050633462, 0.034796719, 2.33275e-05, 4.0498522, 0.00052132116, -0.575905
3.10300, 0.00050638041, 0.034650784, 2.32415e-05, 4.0493927, 0.00052132116, -0.575905
3.10400, 0.00050652178, 0.034422930, 2.30625e-05, 4.0509930, 0.00052132116, -0.575905
3.10500, 0.00050669741, 0.034273665, 2.28940e-05, 4.0549031, 0.00052132116, -0.575905
3.10600, 0.00050676120, 0.034169141, 2.28118e-05, 4.0555980, 0.00052132116, -0.575905
3.10700, 0.00050690744, 0.033931028, 2.26269e-05, 4.0573339, 0.00052132116, -0.575905
3.10800, 0.00050700993, 0.033885315, 2.25441e-05, 4.0602155, 0.00052132116, -0.575905
3.10900, 0.00050712147, 0.033768997, 2.24291e-05, 4.0624938, 0.00052132116, -0.575905
3.11000, 0.00050724463, 0.033652280, 2.23069e-05, 4.0651994, 0.00052132116, -0.575905
3.11100, 0.00050732566, 0.033572465, 2.22243e-05, 4.0669145, 0.00052132116, -0.575905
3.11200, 0.00050741919, 0.033410482, 2.21033e-05, 4.0680015, 0.00052132116, -0.575905
3.11300, 0.00050756026, 0.033337247, 2.19868e-05, 4.0719972, 0.00052132116, -0.575905
3.11400, 0.00050764002, 0.033331878, 2.19358e-05, 4.0747927, 0.00052132116, -0.575905
3.11500, 0.00050776254, 0.033021010, 2.17353e-05, 4.0747979, 0.00052132116, -0.575905
3.11600, 0.00050790195, 0.032914322, 2.16080e-05, 4.0783967, 0.00052132116, -0.575905
3.11700, 0.00050800179, 0.032800015, 2.15011e-05, 4.0804367, 0.00052132116, -0.575905
3.11800, 0.00050809251, 0.032564711, 2.13507e-05, 4.0804069, 0.00052132116, -0.575905
3.11900, 0.00050822819, 0.032401372, 2.12026e-05, 4.0831230, 0.00052132116, -0.575905
3.12000, 0.00050830935, 0.032235354, 2.10865e-05, 4.0837751, 0.00052132116, -0.575905
3.12100, 0.00050844668, 0.032049887, 2.09289e-05, 4.0862973, 0.00052132116, -0.575905
3.12200, 0.00050856212, 0.031923153, 2.08074e-05, 4.0888382, 0.00052132116, -0.575905
3.12300, 0.00050864153, 0.031737734, 2.06849e-05, 4.0891921, 0.00052132116, -0.575905
3.12400, 0.00050878241, 0.031547450, 2.05223e-05, 4.0918254, 0.00052132116, -0.575905
3.12500, 0.00050887198, 0.031605978, 2.04932e-05, 4.0962127, 0.00052132116, -0.575905
3.12600, 0.00050895733, 0.031462301, 2.03834e-05, 4.0974350, 0.00052132116, -0.575905
3.12700, 0.00050910759, 0.031272247, 2.02169e-05, 4.1005891, 0.00052132116, -0.575905
3.12800, 0.00050915686, 0.031323675, 2.02082e-05, 4.1032944, 0.00052132116, -0.575905
3.12900, 0.00050926664, 0.031132776, 2.00649e-05, 4.1048556, 0.00052132116, -0.575905
3.13000, 0.00050938234, 0.031090623, 1.99801e-05, 4.1089235, 0.00052132116, -0.575905
3.13100, 0.00050945122, 0.030981136, 1.98949e-05, 4.1101027, 0.00052132116, -0.575905
3.13200, 0.00050955532, 0.030749364, 1.97387e-05, 4.1109051, 0.00052132116, -0.575905
3.13300, 0.00050964897, 0.030724151, 1.96731e-05, 4.1143664, 0.00052132116, -0.575905
3.13400, 0.00050974624, 0.030578282, 1.95557e-05, 4.1161915, 0.00052132116, -0.575905
3.13500, 0.00050986315, 0.030347362, 1.93919e-05, 4.1175823, 0.00052132116, -0.575905
3.13600, 0.00050996171, 0.030241100, 1.92915e-05, 4.1201524, 0.00052132116, -0.575905
3.13700, 0.00051007304, 0.030114675, 1.91742e-05, 4.1229388, 0.00052132116, -0.575905
3.13800, 0.00051019715, 0.029858220, 1.89961e-05, 4.1243408, 0.00052132116, -0.575905
3.13900, 0.00051030386, 0.029792260, 1.89076e-05, 4.1279489, 0.00052132116, -0.575905
3.14000, 0.00051040111, 0.029617665, 1.87788e-05, 4.1294890, 0.00052132116, -0.575905
3.14100, 0.00051051025, 0.029498672, 1.86664e-05, 4.1324280, 0.00052132116, -0.575905
3.14200, 0.00051057257, 0.029468345, 1.86196e-05, 4.1347595, 0.00052132116, -0.575905
3.14300, 0.00051069425, 0.029255163, 1.84603e-05, 4.1368356, 0.00052132116, -0.575905
3.14400, 0.00051079020, 0.029275533, 1.84157e-05, 4.1414833, 0.00052132116, -0.575905
3.14500, 0.00051082705, 0.029175583, 1.83516e-05, 4.1415469, 0.00052132116, -0.575905
3.14600, 0.00051094776, 0.029011663, 1.82156e-05, 4.1444974, 0.00052132116, -0.575905
3.14700, 0.00051105387, 0.028974654, 1.81395e-05, 4.1487201, 0.00052132116, -0.575905
3.14800, 0.00051113391, 0.028826138, 1.80333e-05, 4.1501321, 0.00052132116, -0.575905
3.14900, 0.00051123762, 0.028699713, 1.79219e-05, 4.1529491, 0.00052132116, -0.575905
3.15000, 0.00051129977, 0.028604006, 1.78464e-05, 4.1543296, 0.00052132116, -0.575905
3.15100, 0.00051142731, 0.028436791, 1.77056e-05, 4.1577165, 0.00052132116, -0.575905
3.15200, 0.00051155598, 0.028243272, 1.75519e-05, 4.1607485, 0.00052132116, -0.575905
3.15300, 0.00051162320, 0.028165068, 1.74811e-05, 4.1627027, 0.00052132116, -0.575905
3.15400, 0.00051174242, 0.027920606, 1.73128e-05, 4.1646153, 0.00052132116, -0.575905
3.15500, 0.00051185120, 0.027822219, 1.72105e-05, 4.1683007, 0.00052132116, -0.575905
3.15600, 0.00051192644, 0.027617920, 1.70827e-05, 4.1687455, 0.00052132116, -0.575905
3.15700, 0.00051202443, 0.027533611, 1.69933e-05, 4.1722237, 0.00052132116, -0.575905
3.15800, 0.00051215781, 0.027429491, 1.68766e-05, 4.1771889, 0.00052132116, -0.575905
3.15900, 0.00051223722, 0.027377283, 1.68114e-05, 4.1803290, 0.00052132116, -0.575905
3.16000, 0.00051231690, 0.027228815, 1.67061e-05, 4.1820207, 0.00052132116, -0.575905
3.16100, 0.00051239975, 0.027261635, 1.66765e-05, 4.1867596, 0.00052132116, -0.575905
3.16200, 0.00051247211, 0.027121328, 1.65768e-05, 4.1881874, 0.00052132116, -0.575905
3.16300, 0.00051262374, 0.026984708, 1.64382e-05, 4.1938304, 0.00052132116, -0.575905
3.16400, 0.00051266441, 0.026995752, 1.64223e-05, 4.1961375, 0.00052132116, -0.575905
3.16500, 0.00051280810, 0.026818516, 1.62698e-05, 4.2007976, 0.00052132116, -0.575905
3.16600, 0.00051286968, 0.026666937, 1.61732e-05, 4.2016714, 0.00052132116, -0.575905
3.16700, 0.00051294766, 0.026642337, 1.61223e-05, 4.2054172, 0.00052132116, -0.575905
3.16800, 0.00051307067, 0.026381513, 1.59445e-05, 4.2077953, 0.00052132116, -0.575905
3.16900, 0.00051317400, 0.026306840, 1.58588e-05, 4.2121730, 0.00052132116, -0.575905
3.17000, 0.00051322673, 0.026115801, 1.57473e-05, 4.2119313, 0.00052132116, -0.575905
3.17100, 0.00051337662, 0.025973896, 1.56092e-05, 4.2178842, 0.00052132116, -0.575905
3.17200, 0.00051343371, 0.025845055, 1.55237e-05, 4.2189627, 0.00052132116, -0.575905
3.17300, 0.00051352482, 0.025671486, 1.54018e-05, 4.2212456, 0.00052132116, -0.575905
3.17400, 0.00051366667, 0.025587754, 1.52937e-05, 4.2278811, 0.00052132116, -0.575905
3.17500, 0.00051370738, 0.025538784, 1.52512e-05, 4.2293773, 0.00052132116, -0.575905
3.17600, 0.00051382684, 0.025372518, 1.51198e-05, 4.2335646, 0.00052132116, -0.575905
3.17700, 0.00051393327, 0.025349014, 1.50579e-05, 4.2393580, 0.00052132116, -0.575905
3.17800, 0.00051397193, 0.025268933, 1.50025e-05, 4.2402761, 0.00052132116, -0.575905
3.17900, 0.00051407402, 0.025179129, 1.49140e-05, 4.2448314, 0.00052132116, -0.575905
3.18000, 0.00051421070, 0.025036678, 1.47839e-05, 4.2505788, 0.00052132116, -0.575905
3.18100, 0.00051424871, 0.025024770, 1.47613e-05, 4.2526801, 0.00052132116, -0.575905
3.18200, 0.00051436091, 0.024799844, 1.46063e-05, 4.2557483, 0.00052132116, -0.575905
3.18300, 0.00051444721, 0.024831071, 1.45806e-05, 4.2614999, 0.00052132116, -0.575905
3.18400, 0.00051450631, 0.024594683, 1.44467e-05, 4.2613004, 0.00052132116, -0.575905
3.18500, 0.00051465451, 0.024524294, 1.43449e-05, 4.2692396, 0.00052132116, -0.575905
3.18600, 0.00051470655, 0.024370681, 1.42514e-05, 4.2699958, 0.00052132116, -0.575905
3.18700, 0.00051483381, 0.024181606, 1.41085e-05, 4.2749578, 0.00052132116, -0.575905
3.18800, 0.00051492665, 0.024000978, 1.39818e-05, 4.2778325, 0.00052132116, -0.575905
3.18900, 0.00051498648, 0.023943786, 1.39302e-05, 4.2807815, 0.00052132116, -0.575905
3.19000, 0.00051508112, 0.023816478, 1.38281e-05, 4.2847570, 0.00052132116, -0.575905
3.19100, 0.00051522023, 0.023663308, 1.36985e-05, 4.2914145, 0.00052132116, -0.575905
3.19200, 0.00051527292, 0.023663308, 1.36740e-05, 4.2948253, 0.00052132116, -0.575905
3.19300, 0.00051538254, 0.023552207, 1.35748e-05, 4.3002739, 0.00052132116, -0.575905
3.19400, 0.00051548898, 0.023511676, 1.35114e-05, 4.3067599, 0.00052132116, -0.575905
3.19500, 0.00051552307, 0.023465997, 1.34760e-05, 4.3083289, 0.00052132116, -0.575905
3.19600, 0.00051563093, 0.023315638, 1.33603e-05, 4.3132137, 0.00052132116, -0.575905
3.19700, 0.00051571448, 0.023330973, 1.33343e-05, 4.3192040, 0.00052132116, -0.575905
3.19800, 0.00051578165, 0.023164304, 1.32261e-05, 4.3210944, 0.00052132116, -0.575905
3.19900, 0.00051588912, 0.023086974, 1.31471e-05, 4.3273529, 0.00052132116, -0.575905
3.20000, 0.00051594752, 0.022941928, 1.30568e-05, 4.3291958, 0.00052132116, -0.575905
3.20100, 0.00051604508, 0.022801189, 1.29495e-05, 4.3337877, 0.00052132116, -0.575905
3.20200, 0.00051622199, 0.022591075, 1.27808e-05, 4.3431400, 0.00052132116, -0.575905
3.20300, 0.00051638739, 0.022643786, 1.27422e-05, 4.3559158, 0.00052132116, -0.575905
3.20400, 0.00051669201, 0.022154113, 1.23959e-05, 4.3710320, 0.00052132116, -0.575905
3.20500, 0.00051701393, 0.021650618, 1.20378e-05, 4.3880788, 0.00052132116, -0.575905
3.20600, 0.00051722768, 0.021004995, 1.16504e-05, 4.3952974, 0.00052132116, -0.575905
3.20700, 0.00051745607, 0.020388654, 1.12709e-05, 4.4045981, 0.00052132116, -0.575905
3.20800, 0.00051766523, 0.019813355, 1.09220e-05, 4.4135948, 0.00052132116, -0.575905
3.20900, 0.00051778773, 0.019143159, 1.05543e-05, 4.4138699, 0.00052132116, -0.575905
3.21000, 0.00051793728, 0.018396867, 1.01404e-05, 4.4153907, 0.00052132116, -0.575905
3.21100, 0.00051800035, 0.017810792, 9.83309e-06, 4.4114205, 0.00052132116, -0.575905
3.21200, 0.00051809824, 0.016868886, 9.34130e-06, 4.4041217, 0.00052132116, -0.575905
3.21300, 0.00051817885, 0.016124550, 8.94883e-06, 4.3979638, 0.00052132116, -0.575905
3.21400, 0.00051817721, 0.015336379, 8.56659e-06, 4.3813645, 0.00052132116, -0.575905
3.21500, 0.00051827445, 0.014476657, 8.11760e-06, 4.3728310, 0.00052132116, -0.575905
3.21600, 0.00051833329, 0.013602046, 7.67343e-06, 4.3580563, 0.00052132116, -0.575905
3.21700, 0.00051840747, 0.012826188, 7.27737e-06, 4.3464691, 0.00052132116, -0.575905
3.21800, 0.00051848443, 0.011905525, 6.81152e-06, 4.3293057, 0.00052132116, -0.575905
3.21900, 0.00051867188, 0.011145284, 6.37293e-06, 4.3305149, 0.00052132116, -0.575905
3.22000, 0.00051874680, 0.010183956, 5.88933e-06, 4.3073186, 0.00052132116, -0.575905
3.22100, 0.00051894514, 0.0092709502, 5.37626e-06, 4.3024044, 0.00052132116, -0.575905
3.22200, 0.00051903250, 0.0084643494, 4.96055e-06, 4.2810341, 0.00052132116, -0.575905
3.22300, 0.00051920938, 0.0075249374, 4.44870e-06, 4.2664243, 0.00052132116, -0.575905
3.22400, 0.00051939312, 0.0067127701, 3.99289e-06, 4.2575169, 0.00052132116, -0.575905
3.22500, 0.00051951782, 0.0059502320, 3.58290e-06, 4.2343943, 0.00052132116, -0.575905
3.22600, 0.00051964289, 0.0050390111, 3.11115e-06, 4.1925190, 0.00052132116, -0.575905
3.22700, 0.00051983640, 0.0042846538, 2.68338e-06, 4.1763152, 0.00052132116, -0.575905
3.22800, 0.00051992411, 0.0035040791, 2.30067e-06, 4.1104676, 0.00052132116, -0.575905
3.22900, 0.00052005878, 0.0027186358, 1.89863e-06, 4.0360947, 0.00052132116, -0.575905
3.23000, 0.00052023153, 0.0019223655, 1.47233e-06, 3.9306748, 0.00052132116, -0.575905
