time(s), Phieff(Wb), Thetaeff(rad), Phipl(Wb), DelTheta(rad), Phiext(Wb), Thetaext(rad)
3, 0.00034777609, -0.00000000, 0, -2.1991151, 0.00034777609, 0.549856
3.001, 0.00034779123, 0.00048828125, 1.60945008974522E-07, 1.3983178, 0.00034777609, 0.549856
3.002, 0.00034821143, 0.00059801998, 4.8865401186049E-07, 0.39332141, 0.00034777609, 0.549856
3.003, 0.00034871749, 0.00077204045, 9.83789004385471E-07, 0.21654360, 0.00034777609, 0.549856
3.004, 0.00034911708, 0.0012448779, 1.41008999198675E-06, 0.23649884, 0.00034777609, 0.549856
3.005, 0.00034962365, 0.0019834081, 1.96901001036167E-06, 0.27556516, 0.00034777609, 0.549856
3.006, 0.00034994791, 0.0024897563, 2.34156996011734E-06, 0.30590547, 0.00034777609, 0.549856
3.007, 0.00035030031, 0.0031644255, 2.75299996137619E-06, 0.33366993, 0.00034777609, 0.549856
3.008, 0.00035072312, 0.0039214818, 3.25210988521576E-06, 0.36011462, 0.00034777609, 0.549856
3.009, 0.00035101989, 0.0047340668, 3.64123992621899E-06, 0.39548756, 0.00034777609, 0.549856
3.01, 0.00035142348, 0.0056417165, 4.14679013192654E-06, 0.42020352, 0.00034777609, 0.549856
3.011, 0.00035186849, 0.0065236390, 4.68649975955486E-06, 0.43381161, 0.00034777609, 0.549856
3.012, 0.00035215337, 0.0080158683, 5.19897006452084E-06, 0.49546146, 0.00034777609, 0.549856
3.013, 0.00035254460, 0.0091675045, 5.74764981865883E-06, 0.51845919, 0.00034777609, 0.549856
3.014, 0.00035286736, 0.010461125, 6.27223998308182E-06, 0.55049676, 0.00034777609, 0.549856
3.015, 0.00035311933, 0.011965453, 6.79162964224815E-06, 0.59282954, 0.00034777609, 0.549856
3.016, 0.00035346110, 0.013156534, 7.32075944542885E-06, 0.60974977, 0.00034777609, 0.549856
3.017, 0.00035373721, 0.014497229, 7.83515051007271E-06, 0.63504023, 0.00034777609, 0.549856
3.018, 0.00035397784, 0.015506449, 8.24960023164749E-06, 0.64938609, 0.00034777609, 0.549856
3.019, 0.00035429848, 0.016446641, 8.71086046099663E-06, 0.65439775, 0.00034777609, 0.549856
3.02, 0.00035445073, 0.017421668, 9.05288010835648E-06, 0.67202654, 0.00034777609, 0.549856
3.021, 0.00035470878, 0.018069951, 9.39905047416687E-06, 0.67191119, 0.00034777609, 0.549856
3.022, 0.00035501021, 0.018551741, 9.73799005150795E-06, 0.66429971, 0.00034777609, 0.549856
3.023, 0.00035512844, 0.019369135, 1.0019900649786E-05, 0.67820741, 0.00034777609, 0.549856
3.024, 0.00035543750, 0.019906400, 1.0376999527216E-05, 0.67178386, 0.00034777609, 0.549856
3.025, 0.00035568172, 0.020194773, 1.06279000639915E-05, 0.66366605, 0.00034777609, 0.549856
3.026, 0.00035585186, 0.020742269, 1.08840003609657E-05, 0.66673700, 0.00034777609, 0.549856
3.027, 0.00035609911, 0.020911137, 1.11097000539303E-05, 0.65604633, 0.00034777609, 0.549856
3.028, 0.00035631294, 0.021070164, 1.13090999424458E-05, 0.64748360, 0.00034777609, 0.549856
3.029, 0.00035647832, 0.021278486, 1.14827997982502E-05, 0.64302771, 0.00034777609, 0.549856
3.03, 0.00035678568, 0.021199903, 1.17024004459381E-05, 0.62432933, 0.00034777609, 0.549856
3.031, 0.00035689488, 0.021143593, 1.17745004594326E-05, 0.61712381, 0.00034777609, 0.549856
3.032, 0.00035706031, 0.020990800, 1.18702001869678E-05, 0.60479504, 0.00034777609, 0.549856
3.033, 0.00035727192, 0.020615436, 1.19570001959801E-05, 0.58507799, 0.00034777609, 0.549856
3.034, 0.00035726868, 0.020185916, 1.1863199621439E-05, 0.57491387, 0.00034777609, 0.549856
3.035, 0.00035742131, 0.019804327, 1.19071997702122E-05, 0.55809551, 0.00034777609, 0.549856
3.036, 0.00035756064, 0.019018199, 1.1862600594759E-05, 0.53201859, 0.00034777609, 0.549856
3.037, 0.00035757710, 0.018554954, 1.17850005626678E-05, 0.51960218, 0.00034777609, 0.549856
3.038, 0.00035760949, 0.017907584, 1.16866007447243E-05, 0.50143410, 0.00034777609, 0.549856
3.039, 0.00035768975, 0.017048147, 1.15942001342773E-05, 0.47526205, 0.00034777609, 0.549856
3.04, 0.00035764572, 0.016659101, 1.14864997565746E-05, 0.46694500, 0.00034777609, 0.549856
3.041, 0.00035765328, 0.015769456, 1.13347999751568E-05, 0.44221405, 0.00034777609, 0.549856
3.042, 0.00035754919, 0.015168333, 1.11416004598141E-05, 0.43002984, 0.00034777609, 0.549856
3.043, 0.00035740599, 0.014410627, 1.08882002532482E-05, 0.41430803, 0.00034777609, 0.549856
3.044, 0.00035730283, 0.013593280, 1.06633000075817E-05, 0.39428539, 0.00034777609, 0.549856
3.045, 0.00035703342, 0.012900328, 1.03135995566845E-05, 0.38456618, 0.00034777609, 0.549856
3.046, 0.00035685593, 0.012039944, 1.0020999610424E-05, 0.36446040, 0.00034777609, 0.549856
3.047, 0.00035668855, 0.011155975, 9.73928049206734E-06, 0.34217573, 0.00034777609, 0.549856
3.048, 0.00035635889, 0.010461125, 9.3387097120285E-06, 0.33191349, 0.00034777609, 0.549856
3.049, 0.00035602606, 0.0096613457, 8.92261937260628E-06, 0.31717214, 0.00034777609, 0.549856
3.05, 0.00035565348, 0.0084573049, 8.42049047350884E-06, 0.28690748, 0.00034777609, 0.549856
3.051, 0.00035522958, 0.0080677522, 7.97388032078743E-06, 0.28886241, 0.00034777609, 0.549856
3.052, 0.00035477307, 0.0069139795, 7.40690976381302E-06, 0.25926587, 0.00034777609, 0.549856
3.053, 0.00035431230, 0.0053932494, 6.80477991700172E-06, 0.20613081, 0.00034777609, 0.549856
3.054, 0.00035373466, 0.0041861427, 6.1369102448225E-06, 0.16530355, 0.00034777609, 0.549856
3.055, 0.00035333867, 0.0029901010, 5.66051006317139E-06, 0.10932224, 0.00034777609, 0.549856
3.056, 0.00035263394, 0.0018269814, 4.89946976304054E-06, 0.052885531, 0.00034777609, 0.549856
3.057, 0.00035220565, 0.00048828125, 4.43281978368759E-06, -0.039894841, 0.00034777609, 0.549856
3.058, 0.00035173299, -0.00091349060, 3.96859012544155E-06, -0.15565197, 0.00034777609, 0.549856
3.059, 0.00035107258, -0.0020132356, 3.37237007915974E-06, -0.29201222, 0.00034777609, 0.549856
3.06, 0.00035039267, -0.0029700999, 2.81245000660419E-06, -0.45534747, 0.00034777609, 0.549856
3.061, 0.00034991786, -0.0044618365, 2.64790989458561E-06, -0.70929170, 0.00034777609, 0.549856
3.062, 0.00034922441, -0.0053599915, 2.36101001501083E-06, -0.99153368, 0.00034777609, 0.549856
3.063, 0.00034871907, -0.0065691643, 2.47392989695072E-06, -1.2614836, 0.00034777609, 0.549856
3.064, 0.00034805243, -0.0077819424, 2.72107999771833E-06, -1.5514187, 0.00034777609, 0.549856
3.065, 0.00034727349, -0.0087414896, 3.07716000825167E-06, -1.8176917, 0.00034777609, 0.549856
3.066, 0.00034675117, -0.010006829, 3.62336002290249E-06, -1.9410363, 0.00034777609, 0.549856
3.067, 0.00034606637, -0.011632028, 4.38276007771492E-06, -2.0558092, 0.00034777609, 0.549856
3.068, 0.00034531921, -0.012671901, 5.0321102142334E-06, -2.1656567, 0.00034777609, 0.549856
3.069, 0.00034468440, -0.014122339, 5.78531995415688E-06, -2.2201047, 0.00034777609, 0.549856
3.07, 0.00034395014, -0.015575487, 6.60694986581802E-06, -2.2746240, 0.00034777609, 0.549856
3.071, 0.00034312784, -0.016769655, 7.42795988917351E-06, -2.3337451, 0.00034777609, 0.549856
3.072, 0.00034254355, -0.018367684, 8.21918994188309E-06, -2.3485202, 0.00034777609, 0.549856
3.073, 0.00034174433, -0.019399885, 9.00593027472496E-06, -2.3927929, 0.00034777609, 0.549856
3.074, 0.00034101370, -0.020583605, 9.79596003890038E-06, -2.4214352, 0.00034777609, 0.549856
3.075, 0.00034029861, -0.022256123, 1.07018992304802E-05, -2.4339130, 0.00034777609, 0.549856
3.076, 0.00033938343, -0.023420226, 1.16261996328831E-05, -2.4674045, 0.00034777609, 0.549856
3.077, 0.00033851476, -0.024756540, 1.25667005777359E-05, -2.4901363, 0.00034777609, 0.549856
3.078, 0.00033766508, -0.026395066, 1.35659009218216E-05, -2.5033811, 0.00034777609, 0.549856
3.079, 0.00033674352, -0.027920606, 1.45944997668266E-05, -2.5201950, 0.00034777609, 0.549856
3.08, 0.00033585446, -0.029561253, 1.56268998980522E-05, -2.5316856, 0.00034777609, 0.549856
3.081, 0.00033482204, -0.031021517, 1.6729199886322E-05, -2.5502911, 0.00034777609, 0.549856
3.082, 0.00033386594, -0.032460194, 1.77712991833687E-05, -2.5643651, 0.00034777609, 0.549856
3.083, 0.00033288915, -0.034139466, 1.88824996352196E-05, -2.5743442, 0.00034777609, 0.549856
3.084, 0.00033190776, -0.035693217, 1.99711993336678E-05, -2.5851809, 0.00034777609, 0.549856
3.085, 0.00033091919, -0.037345313, 2.10868000984192E-05, -2.5940051, 0.00034777609, 0.549856
3.086, 0.00033004414, -0.039083295, 2.2129799425602E-05, -2.5979599, 0.00034777609, 0.549856
3.087, 0.00032900267, -0.040459447, 2.32317000627518E-05, -2.6101186, 0.00034777609, 0.549856
3.088, 0.00032800513, -0.041931335, 2.43192002177238E-05, -2.6191652, 0.00034777609, 0.549856
3.089, 0.00032710547, -0.043474168, 2.53426015377045E-05, -2.6245102, 0.00034777609, 0.549856
3.09, 0.00032603391, -0.044622030, 2.64284998178482E-05, -2.6373183, 0.00034777609, 0.549856
3.091, 0.00032511496, -0.046059374, 2.74473011493683E-05, -2.6432070, 0.00034777609, 0.549856
3.092, 0.00032409705, -0.047350083, 2.85194009542465E-05, -2.6521233, 0.00034777609, 0.549856
3.093, 0.00032311290, -0.048547637, 2.95478016138077E-05, -2.6606523, 0.00034777609, 0.549856
3.094, 0.00032223975, -0.049940154, 3.05214017629623E-05, -2.6649285, 0.00034777609, 0.549856
3.095, 0.00032110908, -0.051320482, 3.17045986652374E-05, -2.6737369, 0.00034777609, 0.549856
3.096, 0.00032019784, -0.052700900, 3.27072024345398E-05, -2.6782467, 0.00034777609, 0.549856
3.097, 0.00031936770, -0.054277316, 3.36775004863739E-05, -2.6796646, 0.00034777609, 0.549856
3.098, 0.00031835402, -0.055334948, 3.4707099199295E-05, -2.6879966, 0.00034777609, 0.549856
3.099, 0.00031740280, -0.056657672, 3.57321977615356E-05, -2.6929753, 0.00034777609, 0.549856
3.1, 0.00031650715, -0.058298077, 3.67659002542496E-05, -2.6946329, 0.00034777609, 0.549856
3.101, 0.00031554087, -0.059362512, 3.77584993839264E-05, -2.7013081, 0.00034777609, 0.549856
3.102, 0.00031458737, -0.060721364, 3.87912005186081E-05, -2.7055160, 0.00034777609, 0.549856
3.103, 0.00031376850, -0.061995689, 3.96961003541946E-05, -2.7082941, 0.00034777609, 0.549856
3.104, 0.00031284461, -0.063271716, 4.06893014907837E-05, -2.7123815, 0.00034777609, 0.549856
3.105, 0.00031210869, -0.064463362, 4.15098994970322E-05, -2.7144218, 0.00034777609, 0.549856
3.106, 0.00031120944, -0.065506957, 4.2442798614502E-05, -2.7194207, 0.00034777609, 0.549856
3.107, 0.00031027569, -0.066037484, 4.33206975460052E-05, -2.7277760, 0.00034777609, 0.549856
3.108, 0.00030954436, -0.067243166, 4.41388010978699E-05, -2.7293894, 0.00034777609, 0.549856
3.109, 0.00030864865, -0.068136729, 4.50457006692886E-05, -2.7347148, 0.00034777609, 0.549856
3.11, 0.00030785035, -0.069051579, 4.5873099565506E-05, -2.7386487, 0.00034777609, 0.549856
3.111, 0.00030710142, -0.070260800, 4.67061012983322E-05, -2.7402553, 0.00034777609, 0.549856
3.112, 0.00030615976, -0.070822313, 4.75999981164932E-05, -2.7475192, 0.00034777609, 0.549856
3.113, 0.00030545164, -0.072237603, 4.84299004077911E-05, -2.7474413, 0.00034777609, 0.549856
3.114, 0.00030468384, -0.073137127, 4.92288023233414E-05, -2.7507700, 0.00034777609, 0.549856
3.115, 0.00030378010, -0.073603854, 5.00771999359131E-05, -2.7576624, 0.00034777609, 0.549856
3.116, 0.00030305720, -0.074744374, 5.08756995201111E-05, -2.7590720, 0.00034777609, 0.549856
3.117, 0.00030217891, -0.076176204, 5.1851898431778E-05, -2.7605536, 0.00034777609, 0.549856
3.118, 0.00030133191, -0.076783136, 5.26744961738586E-05, -2.7657720, 0.00034777609, 0.549856
3.119, 0.00030049430, -0.077710763, 5.35383999347687E-05, -2.7692054, 0.00034777609, 0.549856
3.12, 0.00029962192, -0.078869924, 5.4467099905014E-05, -2.7717820, 0.00034777609, 0.549856
3.121, 0.00029873520, -0.079552382, 5.53368031978607E-05, -2.7766574, 0.00034777609, 0.549856
3.122, 0.00029797924, -0.080769412, 5.61730027198792E-05, -2.7777899, 0.00034777609, 0.549856
3.123, 0.00029699049, -0.081090875, 5.70787012577057E-05, -2.7849954, 0.00034777609, 0.549856
3.124, 0.00029609136, -0.082030267, 5.79986035823822E-05, -2.7884716, 0.00034777609, 0.549856
3.125, 0.00029533109, -0.082812175, 5.87745010852814E-05, -2.7914077, 0.00034777609, 0.549856
3.126, 0.00029441860, -0.083471768, 5.96659004688263E-05, -2.7960576, 0.00034777609, 0.549856
3.127, 0.00029368549, -0.085056700, 6.05332016944885E-05, -2.7952247, 0.00034777609, 0.549856
3.128, 0.00029284744, -0.086512052, 6.14730000495911E-05, -2.7958284, 0.00034777609, 0.549856
3.129, 0.00029205287, -0.087478638, 6.23044967651367E-05, -2.7981091, 0.00034777609, 0.549856
3.13, 0.00029150213, -0.088719711, 6.29619002342224E-05, -2.7973616, 0.00034777609, 0.549856
3.131, 0.00029072104, -0.089585312, 6.37664973735809E-05, -2.7999165, 0.00034777609, 0.549856
3.132, 0.00029006678, -0.090565324, 6.44765019416809E-05, -2.8010191, 0.00034777609, 0.549856
3.133, 0.00028950990, -0.091836289, 6.51422023773193E-05, -2.8002641, 0.00034777609, 0.549856
3.134, 0.00028875093, -0.092627123, 6.59161031246185E-05, -2.8028811, 0.00034777609, 0.549856
3.135, 0.00028815013, -0.093839727, 6.66112005710602E-05, -2.8027058, 0.00034777609, 0.549856
3.136, 0.00028751316, -0.095003605, 6.73307001590729E-05, -2.8029987, 0.00034777609, 0.549856
3.137, 0.00028688473, -0.095860571, 6.79991006851196E-05, -2.8043769, 0.00034777609, 0.549856
3.138, 0.00028626469, -0.096832119, 6.8676096200943E-05, -2.8052652, 0.00034777609, 0.549856
3.139, 0.00028570533, -0.097798318, 6.92990005016327E-05, -2.8057476, 0.00034777609, 0.549856
3.14, 0.00028497350, -0.098498434, 7.00352013111114E-05, -2.8083804, 0.00034777609, 0.549856
3.141, 0.00028440466, -0.099326551, 7.06466019153595E-05, -2.8094073, 0.00034777609, 0.549856
3.142, 0.00028381651, -0.10018419, 7.12790012359619E-05, -2.8104521, 0.00034777609, 0.549856
3.143, 0.00028309399, -0.10060169, 7.19676971435547E-05, -2.8139201, 0.00034777609, 0.549856
3.144, 0.00028259348, -0.10164732, 7.25488007068634E-05, -2.8137096, 0.00034777609, 0.549856
3.145, 0.00028194534, -0.10247689, 7.32290983200073E-05, -2.8152234, 0.00034777609, 0.549856
3.146, 0.00028131244, -0.10318761, 7.3879599571228E-05, -2.8170203, 0.00034777609, 0.549856
3.147, 0.00028084573, -0.10413229, 7.44166016578674E-05, -2.8169424, 0.00034777609, 0.549856
3.148, 0.00028013674, -0.10464141, 7.51058995723724E-05, -2.8198695, 0.00034777609, 0.549856
3.149, 0.00027962673, -0.10538858, 7.56533980369568E-05, -2.8207144, 0.00034777609, 0.549856
3.15, 0.00027909934, -0.10637388, 7.62480974197388E-05, -2.8209039, 0.00034777609, 0.549856
3.151, 0.00027849275, -0.10695335, 7.68571972846985E-05, -2.8228880, 0.00034777609, 0.549856
3.152, 0.00027798830, -0.10780260, 7.74130046367645E-05, -2.8233666, 0.00034777609, 0.549856
3.153, 0.00027751317, -0.10910656, 7.80041038990021E-05, -2.8222514, 0.00034777609, 0.549856
3.154, 0.00027701032, -0.10970486, 7.85243034362793E-05, -2.8235150, 0.00034777609, 0.549856
3.155, 0.00027659814, -0.11033458, 7.89692997932434E-05, -2.8241172, 0.00034777609, 0.549856
3.156, 0.00027606600, -0.11107802, 7.95342981815338E-05, -2.8251059, 0.00034777609, 0.549856
3.157, 0.00027559547, -0.11174867, 8.00355970859528E-05, -2.8259343, 0.00034777609, 0.549856
3.158, 0.00027523156, -0.11261654, 8.0469799041748E-05, -2.8255290, 0.00034777609, 0.549856
3.159, 0.00027480169, -0.11309183, 8.09089958667755E-05, -2.8267005, 0.00034777609, 0.549856
3.16, 0.00027435351, -0.11382153, 8.13980996608734E-05, -2.8272211, 0.00034777609, 0.549856
3.161, 0.00027408673, -0.11472117, 8.17511975765228E-05, -2.8261672, 0.00034777609, 0.549856
3.162, 0.00027358375, -0.11520182, 8.22547018527985E-05, -2.8277484, 0.00034777609, 0.549856
3.163, 0.00027319854, -0.11599351, 8.26965987682343E-05, -2.8277259, 0.00034777609, 0.549856
3.164, 0.00027284115, -0.11671385, 8.31044018268585E-05, -2.8277559, 0.00034777609, 0.549856
3.165, 0.00027235314, -0.11714558, 8.35879981517792E-05, -2.8293722, 0.00034777609, 0.549856
3.166, 0.00027203135, -0.11793695, 8.3973902463913E-05, -2.8289970, 0.00034777609, 0.549856
3.167, 0.00027154438, -0.11872004, 8.4502899646759E-05, -2.8296074, 0.00034777609, 0.549856
3.168, 0.00027109467, -0.11939500, 8.49849045276642E-05, -2.8303055, 0.00034777609, 0.549856
3.169, 0.00027071107, -0.12032962, 8.54431986808777E-05, -2.8299108, 0.00034777609, 0.549856
3.17, 0.00027029047, -0.12118068, 8.59227001667023E-05, -2.8299662, 0.00034777609, 0.549856
3.171, 0.00026987669, -0.12170860, 8.63532960414887E-05, -2.8308733, 0.00034777609, 0.549856
3.172, 0.00026956542, -0.12258621, 8.67407023906708E-05, -2.8302471, 0.00034777609, 0.549856
3.173, 0.00026907882, -0.12314113, 8.72379958629608E-05, -2.8314927, 0.00034777609, 0.549856
3.174, 0.00026870592, -0.12382926, 8.76538038253784E-05, -2.8317354, 0.00034777609, 0.549856
3.175, 0.00026832256, -0.12459853, 8.80891978740692E-05, -2.8318260, 0.00034777609, 0.549856
3.176, 0.00026787358, -0.12491324, 8.85218977928162E-05, -2.8334851, 0.00034777609, 0.549856
3.177, 0.00026749455, -0.12575148, 8.89622032642364E-05, -2.8333742, 0.00034777609, 0.549856
3.178, 0.00026710929, -0.12673238, 8.94265949726105E-05, -2.8329331, 0.00034777609, 0.549856
3.179, 0.00026671189, -0.12707898, 8.98181974887848E-05, -2.8342116, 0.00034777609, 0.549856
3.18, 0.00026638014, -0.12781291, 9.02032971382141E-05, -2.8341277, 0.00034777609, 0.549856
3.181, 0.00026600257, -0.12869135, 9.06471014022827E-05, -2.8339292, 0.00034777609, 0.549856
3.182, 0.00026563541, -0.12925026, 9.10398006439209E-05, -2.8344962, 0.00034777609, 0.549856
3.183, 0.00026541886, -0.13006531, 9.13348972797394E-05, -2.8336027, 0.00034777609, 0.549856
3.184, 0.00026492094, -0.13090087, 9.18771982192993E-05, -2.8341862, 0.00034777609, 0.549856
3.185, 0.00026460723, -0.13190079, 9.2280900478363E-05, -2.8333720, 0.00034777609, 0.549856
3.186, 0.00026426796, -0.13309324, 9.2731899023056E-05, -2.8322365, 0.00034777609, 0.549856
3.187, 0.00026386365, -0.13362892, 9.31529998779297E-05, -2.8330806, 0.00034777609, 0.549856
3.188, 0.00026351306, -0.13434640, 9.35513019561768E-05, -2.8331907, 0.00034777609, 0.549856
3.189, 0.00026314971, -0.13535058, 9.39980983734131E-05, -2.8326784, 0.00034777609, 0.549856
3.19, 0.00026272828, -0.13583077, 9.44262981414795E-05, -2.8337495, 0.00034777609, 0.549856
3.191, 0.00026238703, -0.13662341, 9.48258996009827E-05, -2.8336431, 0.00034777609, 0.549856
3.192, 0.00026199747, -0.13759285, 9.52902972698212E-05, -2.8333780, 0.00034777609, 0.549856
3.193, 0.00026158159, -0.13814798, 9.57231044769287E-05, -2.8342393, 0.00034777609, 0.549856
3.194, 0.00026131151, -0.13900408, 9.60690021514893E-05, -2.8336296, 0.00034777609, 0.549856
3.195, 0.00026085096, -0.13958235, 9.65431034564972E-05, -2.8346723, 0.00034777609, 0.549856
3.196, 0.00026041744, -0.14041783, 9.70273971557617E-05, -2.8349711, 0.00034777609, 0.549856
3.197, 0.00026015128, -0.14156771, 9.7408002614975E-05, -2.8336851, 0.00034777609, 0.549856
3.198, 0.00025971937, -0.14219409, 9.78631019592285E-05, -2.8344730, 0.00034777609, 0.549856
3.199, 0.00025937136, -0.14315152, 9.82889950275421E-05, -2.8340731, 0.00034777609, 0.549856
3.2, 0.00025914908, -0.14425820, 9.86258029937744E-05, -2.8327024, 0.00034777609, 0.549856
3.201, 0.00025872793, -0.14514485, 9.91052031517029E-05, -2.8328619, 0.00034777609, 0.549856
3.202, 0.00025845085, -0.14611584, 9.947150349617E-05, -2.8321016, 0.00034777609, 0.549856
3.203, 0.00025816223, -0.14733443, 9.98803019523621E-05, -2.8308628, 0.00034777609, 0.549856
3.204, 0.00025784773, -0.14800489, 1.0023900270462E-04, -2.8309849, 0.00034777609, 0.549856
3.205, 0.00025761031, -0.14876284, 1.00542998313904E-04, -2.8305242, 0.00034777609, 0.549856
3.206, 0.00025738130, -0.14999120, 1.00901997089386E-04, -2.8289985, 0.00034777609, 0.549856
3.207, 0.00025709305, -0.15030003, 1.01190006732941E-04, -2.8297932, 0.00034777609, 0.549856
3.208, 0.00025691623, -0.15133031, 1.01478004455566E-04, -2.8284547, 0.00034777609, 0.549856
3.209, 0.00025659488, -0.15173621, 1.01806998252869E-04, -2.8292097, 0.00034777609, 0.549856
3.21, 0.00025629164, -0.15259932, 1.02181005477905E-04, -2.8288884, 0.00034777609, 0.549856
