time(s), Phieff(Wb), Thetaeff(rad), Phipl(Wb), DelTheta(rad), Phiext(Wb), Thetaext(rad)
3.00000, 0.00052095265, 0.047801275, 6.09507e-05, 2.6735814, 0.00057599309, 0.581026
3.00100, 0.00052117173, 0.047681373, 6.07265e-05, 2.6728876, 0.00057599309, 0.581026
3.00200, 0.00052127388, 0.047553647, 6.06056e-05, 2.6730955, 0.00057599309, 0.581026
3.00300, 0.00052144350, 0.047598768, 6.04650e-05, 2.6714804, 0.00057599309, 0.581026
3.00400, 0.00052160674, 0.047761340, 6.03580e-05, 2.6690061, 0.00057599309, 0.581026
3.00500, 0.00052202870, 0.047746357, 5.99794e-05, 2.6659072, 0.00057599309, 0.581026
3.00600, 0.00052251504, 0.047839928, 5.95700e-05, 2.6614411, 0.00057599309, 0.581026
3.00700, 0.00052306509, 0.047912166, 5.91003e-05, 2.6565759, 0.00057599309, 0.581026
3.00800, 0.00052373190, 0.048055071, 5.85468e-05, 2.6501272, 0.00057599309, 0.581026
3.00900, 0.00052431095, 0.048123267, 5.80542e-05, 2.6448705, 0.00057599309, 0.581026
3.01000, 0.00052497738, 0.048301365, 5.75148e-05, 2.6379054, 0.00057599309, 0.581026
3.01100, 0.00052555011, 0.048524294, 5.70709e-05, 2.6312716, 0.00057599309, 0.581026
3.01200, 0.00052610703, 0.048751097, 5.66452e-05, 2.6246140, 0.00057599309, 0.581026
3.01300, 0.00052665357, 0.049138509, 5.62734e-05, 2.6166523, 0.00057599309, 0.581026
3.01400, 0.00052719099, 0.049285121, 5.58490e-05, 2.6106098, 0.00057599309, 0.581026
3.01500, 0.00052761262, 0.049730763, 5.56066e-05, 2.6031253, 0.00057599309, 0.581026
3.01600, 0.00052804491, 0.049948514, 5.52961e-05, 2.5973194, 0.00057599309, 0.581026
3.01700, 0.00052855230, 0.050193835, 5.49318e-05, 2.5904896, 0.00057599309, 0.581026
3.01800, 0.00052889295, 0.050551336, 5.47423e-05, 2.5842893, 0.00057599309, 0.581026
3.01900, 0.00052934838, 0.050793752, 5.44265e-05, 2.5778272, 0.00057599309, 0.581026
3.02000, 0.00052968617, 0.051095739, 5.42279e-05, 2.5720103, 0.00057599309, 0.581026
3.02100, 0.00053005584, 0.051296078, 5.39760e-05, 2.5666349, 0.00057599309, 0.581026
3.02200, 0.00053047695, 0.051502585, 5.36843e-05, 2.5606387, 0.00057599309, 0.581026
3.02300, 0.00053074393, 0.051824611, 5.35572e-05, 2.5552185, 0.00057599309, 0.581026
3.02400, 0.00053113596, 0.051945288, 5.32679e-05, 2.5501230, 0.00057599309, 0.581026
3.02500, 0.00053149607, 0.052017558, 5.29923e-05, 2.5456994, 0.00057599309, 0.581026
3.02600, 0.00053178227, 0.052287403, 5.28381e-05, 2.5403965, 0.00057599309, 0.581026
3.02700, 0.00053214767, 0.052366037, 5.25622e-05, 2.5357816, 0.00057599309, 0.581026
3.02800, 0.00053250910, 0.052465014, 5.22965e-05, 2.5310047, 0.00057599309, 0.581026
3.02900, 0.00053284457, 0.052591026, 5.20624e-05, 2.5262201, 0.00057599309, 0.581026
3.03000, 0.00053316945, 0.052645426, 5.18153e-05, 2.5221212, 0.00057599309, 0.581026
3.03100, 0.00053346158, 0.052721262, 5.16026e-05, 2.5181696, 0.00057599309, 0.581026
3.03200, 0.00053378320, 0.052743878, 5.13497e-05, 2.5143030, 0.00057599309, 0.581026
3.03300, 0.00053412889, 0.052791342, 5.10863e-05, 2.5099042, 0.00057599309, 0.581026
3.03400, 0.00053446910, 0.052787956, 5.08122e-05, 2.5059488, 0.00057599309, 0.581026
3.03500, 0.00053473387, 0.052843280, 5.06184e-05, 2.5023420, 0.00057599309, 0.581026
3.03600, 0.00053512212, 0.052709952, 5.02655e-05, 2.4988349, 0.00057599309, 0.581026
3.03700, 0.00053542932, 0.052669208, 5.00078e-05, 2.4954717, 0.00057599309, 0.581026
3.03800, 0.00053578813, 0.052627299, 4.97090e-05, 2.4914610, 0.00057599309, 0.581026
3.03900, 0.00053619896, 0.052435454, 4.93210e-05, 2.4880350, 0.00057599309, 0.581026
3.04000, 0.00053647401, 0.052438866, 4.91048e-05, 2.4845798, 0.00057599309, 0.581026
3.04100, 0.00053688843, 0.052090876, 4.86635e-05, 2.4823654, 0.00057599309, 0.581026
3.04200, 0.00053725373, 0.051893603, 4.83108e-05, 2.4794309, 0.00057599309, 0.581026
3.04300, 0.00053759371, 0.051705960, 4.79810e-05, 2.4767125, 0.00057599309, 0.581026
3.04400, 0.00053805099, 0.051379707, 4.75134e-05, 2.4736474, 0.00057599309, 0.581026
3.04500, 0.00053847217, 0.051079400, 4.70839e-05, 2.4707515, 0.00057599309, 0.581026
3.04600, 0.00053887597, 0.050736196, 4.66530e-05, 2.4684465, 0.00057599309, 0.581026
3.04700, 0.00053930976, 0.050378822, 4.61946e-05, 2.4658115, 0.00057599309, 0.581026
3.04800, 0.00053973755, 0.049985506, 4.57281e-05, 2.4635623, 0.00057599309, 0.581026
3.04900, 0.00054016936, 0.049637150, 4.52744e-05, 2.4607875, 0.00057599309, 0.581026
3.05000, 0.00054061647, 0.049195509, 4.47769e-05, 2.4586251, 0.00057599309, 0.581026
3.05100, 0.00054102107, 0.048911061, 4.43663e-05, 2.4555461, 0.00057599309, 0.581026
3.05200, 0.00054146907, 0.048574649, 4.39051e-05, 2.4522665, 0.00057599309, 0.581026
3.05300, 0.00054192806, 0.048129462, 4.33980e-05, 2.4498088, 0.00057599309, 0.581026
3.05400, 0.00054230689, 0.047813747, 4.29971e-05, 2.4472530, 0.00057599309, 0.581026
3.05500, 0.00054275655, 0.047226511, 4.24473e-05, 2.4462516, 0.00057599309, 0.581026
3.05600, 0.00054320134, 0.046893280, 4.19906e-05, 2.4427617, 0.00057599309, 0.581026
3.05700, 0.00054346394, 0.046768505, 4.17460e-05, 2.4399622, 0.00057599309, 0.581026
3.05800, 0.00054374392, 0.046542298, 4.14526e-05, 2.4378793, 0.00057599309, 0.581026
3.05900, 0.00054387593, 0.046325281, 4.12759e-05, 2.4379847, 0.00057599309, 0.581026
3.06000, 0.00054401295, 0.046121471, 4.10989e-05, 2.4379118, 0.00057599309, 0.581026
3.06100, 0.00054424138, 0.045715034, 4.07819e-05, 2.4384263, 0.00057599309, 0.581026
3.06200, 0.00054433121, 0.045390420, 4.05994e-05, 2.4403212, 0.00057599309, 0.581026
3.06300, 0.00054450720, 0.045018461, 4.03348e-05, 2.4413436, 0.00057599309, 0.581026
3.06400, 0.00054471243, 0.044622030, 4.00390e-05, 2.4421771, 0.00057599309, 0.581026
3.06500, 0.00054486550, 0.044308253, 3.98115e-05, 2.4430168, 0.00057599309, 0.581026
3.06600, 0.00054509524, 0.043871451, 3.94828e-05, 2.4439123, 0.00057599309, 0.581026
3.06700, 0.00054523088, 0.043408290, 3.92171e-05, 2.4466512, 0.00057599309, 0.581026
3.06800, 0.00054541202, 0.043078762, 3.89630e-05, 2.4472430, 0.00057599309, 0.581026
3.06900, 0.00054561338, 0.042629369, 3.86520e-05, 2.4488103, 0.00057599309, 0.581026
3.07000, 0.00054582177, 0.042206284, 3.83440e-05, 2.4500253, 0.00057599309, 0.581026
3.07100, 0.00054594331, 0.041810300, 3.81134e-05, 2.4523828, 0.00057599309, 0.581026
3.07200, 0.00054615105, 0.041286528, 3.77712e-05, 2.4548013, 0.00057599309, 0.581026
3.07300, 0.00054638552, 0.040906426, 3.74584e-05, 2.4551680, 0.00057599309, 0.581026
3.07400, 0.00054654536, 0.040387176, 3.71563e-05, 2.4583900, 0.00057599309, 0.581026
3.07500, 0.00054679390, 0.039828248, 3.67719e-05, 2.4606235, 0.00057599309, 0.581026
3.07600, 0.00054694978, 0.039422002, 3.65109e-05, 2.4627416, 0.00057599309, 0.581026
3.07700, 0.00054716295, 0.038859941, 3.61530e-05, 2.4657381, 0.00057599309, 0.581026
3.07800, 0.00054744277, 0.038372066, 3.57681e-05, 2.4667575, 0.00057599309, 0.581026
3.07900, 0.00054759749, 0.037987929, 3.55168e-05, 2.4687164, 0.00057599309, 0.581026
3.08000, 0.00054787937, 0.037480760, 3.51237e-05, 2.4700058, 0.00057599309, 0.581026
3.08100, 0.00054809431, 0.037008546, 3.47950e-05, 2.4720867, 0.00057599309, 0.581026
3.08200, 0.00054829723, 0.036701195, 3.45318e-05, 2.4723308, 0.00057599309, 0.581026
3.08300, 0.00054854632, 0.036238570, 3.41786e-05, 2.4737794, 0.00057599309, 0.581026
3.08400, 0.00054875789, 0.035908036, 3.39006e-05, 2.4741967, 0.00057599309, 0.581026
3.08500, 0.00054903639, 0.035547607, 3.35592e-05, 2.4738095, 0.00057599309, 0.581026
3.08600, 0.00054927565, 0.035129223, 3.32301e-05, 2.4748743, 0.00057599309, 0.581026
3.08700, 0.00054946958, 0.034755576, 3.29505e-05, 2.4762676, 0.00057599309, 0.581026
3.08800, 0.00054972395, 0.034398675, 3.26301e-05, 2.4762771, 0.00057599309, 0.581026
3.08900, 0.00054995079, 0.033941567, 3.22974e-05, 2.4781964, 0.00057599309, 0.581026
3.09000, 0.00055017507, 0.033636332, 3.20170e-05, 2.4781425, 0.00057599309, 0.581026
3.09100, 0.00055039453, 0.033159737, 3.16832e-05, 2.4805658, 0.00057599309, 0.581026
3.09200, 0.00055065841, 0.032741804, 3.13336e-05, 2.4813678, 0.00057599309, 0.581026
3.09300, 0.00055082279, 0.032371920, 3.10809e-05, 2.4833748, 0.00057599309, 0.581026
3.09400, 0.00055112288, 0.031885780, 3.06793e-05, 2.4845331, 0.00057599309, 0.581026
3.09500, 0.00055137324, 0.031530440, 3.03627e-05, 2.4847152, 0.00057599309, 0.581026
3.09600, 0.00055158458, 0.031148093, 3.00663e-05, 2.4861763, 0.00057599309, 0.581026
3.09700, 0.00055189233, 0.030759055, 2.96915e-05, 2.4857853, 0.00057599309, 0.581026
3.09800, 0.00055210735, 0.030331643, 2.93781e-05, 2.4878733, 0.00057599309, 0.581026
3.09900, 0.00055234029, 0.030053245, 2.90994e-05, 2.4873626, 0.00057599309, 0.581026
3.10000, 0.00055262723, 0.029611627, 2.87234e-05, 2.4882634, 0.00057599309, 0.581026
3.10100, 0.00055284231, 0.029326396, 2.84575e-05, 2.4881990, 0.00057599309, 0.581026
3.10200, 0.00055311717, 0.028968481, 2.81181e-05, 2.4880989, 0.00057599309, 0.581026
3.10300, 0.00055341663, 0.028583158, 2.77515e-05, 2.4878366, 0.00057599309, 0.581026
3.10400, 0.00055358917, 0.028298097, 2.75186e-05, 2.4887550, 0.00057599309, 0.581026
3.10500, 0.00055389812, 0.027875733, 2.71309e-05, 2.4889724, 0.00057599309, 0.581026
3.10600, 0.00055414447, 0.027518451, 2.68155e-05, 2.4894726, 0.00057599309, 0.581026
3.10700, 0.00055437058, 0.027149886, 2.65118e-05, 2.4906800, 0.00057599309, 0.581026
3.10800, 0.00055463479, 0.026778474, 2.61765e-05, 2.4911087, 0.00057599309, 0.581026
3.10900, 0.00055487536, 0.026343072, 2.58408e-05, 2.4931305, 0.00057599309, 0.581026
3.11000, 0.00055513413, 0.026115801, 2.55573e-05, 2.4911831, 0.00057599309, 0.581026
3.11100, 0.00055541366, 0.025634306, 2.51732e-05, 2.4932835, 0.00057599309, 0.581026
3.11200, 0.00055564580, 0.025323132, 2.48843e-05, 2.4934132, 0.00057599309, 0.581026
3.11300, 0.00055591650, 0.024989013, 2.45568e-05, 2.4930441, 0.00057599309, 0.581026
3.11400, 0.00055619821, 0.024589835, 2.41989e-05, 2.4936311, 0.00057599309, 0.581026
3.11500, 0.00055638457, 0.024351105, 2.39688e-05, 2.4936469, 0.00057599309, 0.581026
3.11600, 0.00055665386, 0.023913892, 2.36090e-05, 2.4952810, 0.00057599309, 0.581026
3.11700, 0.00055694421, 0.023668347, 2.32929e-05, 2.4928119, 0.00057599309, 0.581026
3.11800, 0.00055713954, 0.023364164, 2.30356e-05, 2.4938018, 0.00057599309, 0.581026
3.11900, 0.00055741318, 0.023058556, 2.27135e-05, 2.4928835, 0.00057599309, 0.581026
3.12000, 0.00055767112, 0.022670096, 2.23782e-05, 2.4939640, 0.00057599309, 0.581026
3.12100, 0.00055793177, 0.022408269, 2.20808e-05, 2.4924829, 0.00057599309, 0.581026
3.12200, 0.00055819447, 0.022092141, 2.17646e-05, 2.4920027, 0.00057599309, 0.581026
3.12300, 0.00055835861, 0.021700120, 2.15040e-05, 2.4957779, 0.00057599309, 0.581026
3.12400, 0.00055859212, 0.021379098, 2.12091e-05, 2.4963052, 0.00057599309, 0.581026
3.12500, 0.00055884827, 0.020976597, 2.08713e-05, 2.4978707, 0.00057599309, 0.581026
3.12600, 0.00055900825, 0.020667417, 2.06400e-05, 2.5002720, 0.00057599309, 0.581026
3.12700, 0.00055921721, 0.020330098, 2.03605e-05, 2.5019267, 0.00057599309, 0.581026
3.12800, 0.00055947009, 0.019936321, 2.00268e-05, 2.5036795, 0.00057599309, 0.581026
3.12900, 0.00055965779, 0.019644156, 1.97798e-05, 2.5049770, 0.00057599309, 0.581026
3.13000, 0.00055983743, 0.019279681, 1.95162e-05, 2.5082643, 0.00057599309, 0.581026
3.13100, 0.00056007660, 0.018901875, 1.91980e-05, 2.5103304, 0.00057599309, 0.581026
3.13200, 0.00056023671, 0.018635094, 1.89823e-05, 2.5119655, 0.00057599309, 0.581026
3.13300, 0.00056054220, 0.018344952, 1.86377e-05, 2.5099528, 0.00057599309, 0.581026
3.13400, 0.00056072760, 0.018076546, 1.84002e-05, 2.5109389, 0.00057599309, 0.581026
3.13500, 0.00056089176, 0.017787348, 1.81738e-05, 2.5131333, 0.00057599309, 0.581026
3.13600, 0.00056119635, 0.017472915, 1.78212e-05, 2.5118067, 0.00057599309, 0.581026
3.13700, 0.00056135212, 0.017197834, 1.76060e-05, 2.5140102, 0.00057599309, 0.581026
3.13800, 0.00056162321, 0.016949963, 1.73048e-05, 2.5117490, 0.00057599309, 0.581026
3.13900, 0.00056185310, 0.016630452, 1.70139e-05, 2.5128238, 0.00057599309, 0.581026
3.14000, 0.00056204559, 0.016363069, 1.67696e-05, 2.5138223, 0.00057599309, 0.581026
3.14100, 0.00056228946, 0.015964800, 1.64429e-05, 2.5166833, 0.00057599309, 0.581026
3.14200, 0.00056251171, 0.015651841, 1.61586e-05, 2.5181730, 0.00057599309, 0.581026
3.14300, 0.00056271860, 0.015398440, 1.59071e-05, 2.5183833, 0.00057599309, 0.581026
3.14400, 0.00056297133, 0.014998405, 1.55741e-05, 2.5211265, 0.00057599309, 0.581026
3.14500, 0.00056320271, 0.014664836, 1.52753e-05, 2.5231645, 0.00057599309, 0.581026
3.14600, 0.00056341112, 0.014394073, 1.50192e-05, 2.5237677, 0.00057599309, 0.581026
3.14700, 0.00056365345, 0.014113895, 1.47282e-05, 2.5238068, 0.00057599309, 0.581026
3.14800, 0.00056389678, 0.013828042, 1.44376e-05, 2.5236857, 0.00057599309, 0.581026
3.14900, 0.00056408035, 0.013593280, 1.42113e-05, 2.5243471, 0.00057599309, 0.581026
3.15000, 0.00056438019, 0.013264822, 1.38587e-05, 2.5236185, 0.00057599309, 0.581026
3.15100, 0.00056454297, 0.013079287, 1.36658e-05, 2.5233753, 0.00057599309, 0.581026
3.15200, 0.00056480926, 0.012802930, 1.33556e-05, 2.5223606, 0.00057599309, 0.581026
3.15300, 0.00056512144, 0.012439279, 1.29836e-05, 2.5220888, 0.00057599309, 0.581026
3.15400, 0.00056526720, 0.012280133, 1.28127e-05, 2.5216301, 0.00057599309, 0.581026
3.15500, 0.00056556643, 0.011900517, 1.24427e-05, 2.5229848, 0.00057599309, 0.581026
3.15600, 0.00056576277, 0.011642272, 1.22006e-05, 2.5238431, 0.00057599309, 0.581026
3.15700, 0.00056596215, 0.011351944, 1.19424e-05, 2.5263326, 0.00057599309, 0.581026
3.15800, 0.00056621178, 0.011010771, 1.16281e-05, 2.5284445, 0.00057599309, 0.581026
3.15900, 0.00056643167, 0.010669862, 1.13398e-05, 2.5319769, 0.00057599309, 0.581026
3.16000, 0.00056665648, 0.010461125, 1.10846e-05, 2.5302551, 0.00057599309, 0.581026
3.16100, 0.00056689911, 0.010107582, 1.07730e-05, 2.5335062, 0.00057599309, 0.581026
3.16200, 0.00056709782, 0.0098507432, 1.05266e-05, 2.5350254, 0.00057599309, 0.581026
3.16300, 0.00056734254, 0.0095932409, 1.02408e-05, 2.5343101, 0.00057599309, 0.581026
3.16400, 0.00056758399, 0.0092902174, 9.94814e-06, 2.5352500, 0.00057599309, 0.581026
3.16500, 0.00056779568, 0.0090760225, 9.70389e-06, 2.5341356, 0.00057599309, 0.581026
3.16600, 0.00056804479, 0.0088026440, 9.40960e-06, 2.5338967, 0.00057599309, 0.581026
3.16700, 0.00056829265, 0.0085484348, 9.12330e-06, 2.5325387, 0.00057599309, 0.581026
3.16800, 0.00056846561, 0.0083366306, 8.91410e-06, 2.5331929, 0.00057599309, 0.581026
3.16900, 0.00056869940, 0.0080751367, 8.63702e-06, 2.5331042, 0.00057599309, 0.581026
3.17000, 0.00056898719, 0.0078048869, 8.30983e-06, 2.5303910, 0.00057599309, 0.581026
3.17100, 0.00056915265, 0.0075801816, 8.10037e-06, 2.5328381, 0.00057599309, 0.581026
3.17200, 0.00056945522, 0.0072916104, 7.75647e-06, 2.5297735, 0.00057599309, 0.581026
3.17300, 0.00056966434, 0.0070843012, 7.51945e-06, 2.5273702, 0.00057599309, 0.581026
3.17400, 0.00056986459, 0.0067305053, 7.24073e-06, 2.5360348, 0.00057599309, 0.581026
3.17500, 0.00057016795, 0.0064685862, 6.90484e-06, 2.5307396, 0.00057599309, 0.581026
3.17600, 0.00057034066, 0.0062148157, 6.68298e-06, 2.5346596, 0.00057599309, 0.581026
3.17700, 0.00057061380, 0.0058999332, 6.35460e-06, 2.5358579, 0.00057599309, 0.581026
3.17800, 0.00057085834, 0.0056099319, 6.06032e-06, 2.5371344, 0.00057599309, 0.581026
3.17900, 0.00057105951, 0.0053377044, 5.80945e-06, 2.5407031, 0.00057599309, 0.581026
3.18000, 0.00057129143, 0.0050626132, 5.52718e-06, 2.5432398, 0.00057599309, 0.581026
3.18100, 0.00057154322, 0.0047591813, 5.22285e-06, 2.5456750, 0.00057599309, 0.581026
3.18200, 0.00057173931, 0.0045674569, 4.99535e-06, 2.5447123, 0.00057599309, 0.581026
3.18300, 0.00057200929, 0.0043261861, 4.69510e-06, 2.5388129, 0.00057599309, 0.581026
3.18400, 0.00057222498, 0.0040559713, 4.43150e-06, 2.5420902, 0.00057599309, 0.581026
3.18500, 0.00057240540, 0.0038291984, 4.20917e-06, 2.5458801, 0.00057599309, 0.581026
3.18600, 0.00057268842, 0.0036211926, 3.89974e-06, 2.5363858, 0.00057599309, 0.581026
3.18700, 0.00057289534, 0.0033652480, 3.65585e-06, 2.5361483, 0.00057599309, 0.581026
3.18800, 0.00057317118, 0.0031265267, 3.34451e-06, 2.5292857, 0.00057599309, 0.581026
3.18900, 0.00057343700, 0.0028049632, 3.01779e-06, 2.5352247, 0.00057599309, 0.581026
3.19000, 0.00057361060, 0.0026067093, 2.81553e-06, 2.5336106, 0.00057599309, 0.581026
3.19100, 0.00057389118, 0.0022902426, 2.48705e-06, 2.5314887, 0.00057599309, 0.581026
3.19200, 0.00057413854, 0.0019223655, 2.16339e-06, 2.5543573, 0.00057599309, 0.581026
3.19300, 0.00057432535, 0.0018269814, 1.96266e-06, 2.5398862, 0.00057599309, 0.581026
3.19400, 0.00057461713, 0.0015440810, 1.62981e-06, 2.5294216, 0.00057599309, 0.581026
3.19500, 0.00057480762, 0.0012448779, 1.38426e-06, 2.5523636, 0.00057599309, 0.581026
3.19600, 0.00057503176, 0.00097656250, 1.12017e-06, 2.5557554, 0.00057599309, 0.581026
3.19700, 0.00057530485, 0.00077204045, 8.00851e-07, 2.5579197, 0.00057599309, 0.581026
3.19800, 0.00057549684, 0.00048828125, 5.60145e-07, 2.6122120, 0.00057599309, 0.581026
3.19900, 0.00057575324, 0.0000000, 2.90213e-07, 2.4964426, 0.00057599309, 0.581026
3.20000, 0.00057599309, -0.0000000, 0.00000, -2.1991150, 0.00057599309, 0.581026
3.20100, 0.00057622405, -0.0000000, 2.58224e-07, -0.51105824, 0.00057599309, 0.581026
3.20200, 0.00057642618, -0.00048828125, 4.94289e-07, -0.55038344, 0.00057599309, 0.581026
3.20300, 0.00057675643, -0.00059801998, 8.53342e-07, -0.51103344, 0.00057599309, 0.581026
3.20400, 0.00057690623, -0.00077204045, 1.02813e-06, -0.52517564, 0.00057599309, 0.581026
3.20500, 0.00057717780, -0.0010918301, 1.34074e-06, -0.53508204, 0.00057599309, 0.581026
3.20600, 0.00057742443, -0.0013372133, 1.63264e-06, -0.54980064, 0.00057599309, 0.581026
3.20700, 0.00057760779, -0.0015440810, 1.84199e-06, -0.55008744, 0.00057599309, 0.581026
3.20800, 0.00057788375, -0.0018593199, 2.18252e-06, -0.57134284, 0.00057599309, 0.581026
3.20900, 0.00057811770, -0.0021561920, 2.46435e-06, -0.57969464, 0.00057599309, 0.581026
3.21000, 0.00057833688, -0.0023920804, 2.71154e-06, -0.57536054, 0.00057599309, 0.581026
3.21100, 0.00057862446, -0.0026520467, 3.04478e-06, -0.57580904, 0.00057599309, 0.581026
3.21200, 0.00057883327, -0.0028887119, 3.29186e-06, -0.57877104, 0.00057599309, 0.581026
3.21300, 0.00057909705, -0.0031265267, 3.58966e-06, -0.57510744, 0.00057599309, 0.581026
3.21400, 0.00057932933, -0.0034004871, 3.87210e-06, -0.58135634, 0.00057599309, 0.581026
3.21500, 0.00057953563, -0.0035881216, 4.10245e-06, -0.57767634, 0.00057599309, 0.581026
3.21600, 0.00057978778, -0.0037822125, 4.37803e-06, -0.57131904, 0.00057599309, 0.581026
3.21700, 0.00058002521, -0.0040559713, 4.66007e-06, -0.57446714, 0.00057599309, 0.581026
3.21800, 0.00058025577, -0.0041861427, 4.90369e-06, -0.56644474, 0.00057599309, 0.581026
3.21900, 0.00058045214, -0.0044350382, 5.14408e-06, -0.57150034, 0.00057599309, 0.581026
3.22000, 0.00058072729, -0.0046579107, 5.44626e-06, -0.56672214, 0.00057599309, 0.581026
3.22100, 0.00058090423, -0.0047841640, 5.63568e-06, -0.56235804, 0.00057599309, 0.581026
3.22200, 0.00058119185, -0.0050390111, 5.96114e-06, -0.56111924, 0.00057599309, 0.581026
3.22300, 0.00058138543, -0.0052248435, 6.18367e-06, -0.56137544, 0.00057599309, 0.581026
3.22400, 0.00058161722, -0.0054809502, 6.45758e-06, -0.56373644, 0.00057599309, 0.581026
3.22500, 0.00058188415, -0.0057671038, 6.76850e-06, -0.56503214, 0.00057599309, 0.581026
3.22600, 0.00058205962, -0.0059602410, 6.98011e-06, -0.56766374, 0.00057599309, 0.581026
3.22700, 0.00058232436, -0.0062148157, 7.28370e-06, -0.56754564, 0.00057599309, 0.581026
3.22800, 0.00058258996, -0.0064961710, 7.59560e-06, -0.56915594, 0.00057599309, 0.581026
3.22900, 0.00058281773, -0.0066413553, 7.83656e-06, -0.56444764, 0.00057599309, 0.581026
3.23000, 0.00058306272, -0.0069312002, 8.13060e-06, -0.56735684, 0.00057599309, 0.581026
3.23100, 0.00058327841, -0.0071928473, 8.39253e-06, -0.57038814, 0.00057599309, 0.581026
