time(s), Phieff(Wb), Thetaeff(rad), Phipl(Wb), DelTheta(rad), Phiext(Wb), Thetaext(rad)
3.00000, 0.00057599309, -0.0000000, 0.00000, -2.1991150, 0.00057599309, 0.581026
3.00100, 0.00057639655, -0.00048828125, 4.46534e-07, -0.49030704, 0.00057599309, 0.581026
3.00200, 0.00057708604, -0.00048828125, 1.12116e-06, -0.27230854, 0.00057599309, 0.581026
3.00300, 0.00057783911, -0.00059801998, 1.87289e-06, -0.21715504, 0.00057599309, 0.581026
3.00400, 0.00057861333, -0.00059801998, 2.64596e-06, -0.18715454, 0.00057599309, 0.581026
3.00500, 0.00057922265, -0.00059801998, 3.24908e-06, -0.15725664, 0.00057599309, 0.581026
3.00600, 0.00057983747, -0.00059801998, 3.85846e-06, -0.13302184, 0.00057599309, 0.581026
3.00700, 0.00058047751, -0.00048828125, 4.49466e-06, -0.11505274, 0.00057599309, 0.581026
3.00800, 0.00058104811, -0.00048828125, 5.05885e-06, -0.086394539, 0.00057599309, 0.581026
3.00900, 0.00058169972, -0.0000000, 5.70909e-06, -0.076788439, 0.00057599309, 0.581026
3.01000, 0.00058234657, -0.0000000, 6.35429e-06, -0.063332139, 0.00057599309, 0.581026
3.01100, 0.00058300430, 0.0000000, 7.01149e-06, -0.038363439, 0.00057599309, 0.581026
3.01200, 0.00058368403, 0.0000000, 7.69233e-06, -0.028130339, 0.00057599309, 0.581026
3.01300, 0.00058431622, 0.00048828125, 8.32824e-06, -0.012010839, 0.00057599309, 0.581026
3.01400, 0.00058493199, 0.00091349060, 8.95218e-06, 0.0075985610, 0.00057599309, 0.581026
3.01500, 0.00058558430, 0.0011451211, 9.61601e-06, 0.025134261, 0.00057599309, 0.581026
3.01600, 0.00058612802, 0.0015822123, 1.01768e-05, 0.044245661, 0.00057599309, 0.581026
3.01700, 0.00058670526, 0.0018269814, 1.07647e-05, 0.052459461, 0.00057599309, 0.581026
3.01800, 0.00058731166, 0.0020716023, 1.13820e-05, 0.059361161, 0.00057599309, 0.581026
3.01900, 0.00058782311, 0.0024657000, 1.19167e-05, 0.074635761, 0.00057599309, 0.581026
3.02000, 0.00058842827, 0.0026067093, 1.25276e-05, 0.075563361, 0.00057599309, 0.581026
3.02100, 0.00058897119, 0.0027621367, 1.30771e-05, 0.077218961, 0.00057599309, 0.581026
3.02200, 0.00058952167, 0.0029296887, 1.36353e-05, 0.079369761, 0.00057599309, 0.581026
3.02300, 0.00059011810, 0.0030881630, 1.42397e-05, 0.081266661, 0.00057599309, 0.581026
3.02400, 0.00059068809, 0.0032204373, 1.48150e-05, 0.081693661, 0.00057599309, 0.581026
3.02500, 0.00059119825, 0.0033652480, 1.53311e-05, 0.082663261, 0.00057599309, 0.581026
3.02600, 0.00059169593, 0.0034526715, 1.58308e-05, 0.081668861, 0.00057599309, 0.581026
3.02700, 0.00059209443, 0.0036376154, 1.62422e-05, 0.086343461, 0.00057599309, 0.581026
3.02800, 0.00059249887, 0.0037025779, 1.66456e-05, 0.084268561, 0.00057599309, 0.581026
3.02900, 0.00059293261, 0.0036376154, 1.70730e-05, 0.079669661, 0.00057599309, 0.581026
3.03000, 0.00059332664, 0.0036702405, 1.74652e-05, 0.077413261, 0.00057599309, 0.581026
3.03100, 0.00059372646, 0.0035379357, 1.78535e-05, 0.070559261, 0.00057599309, 0.581026
3.03200, 0.00059413944, 0.0034179704, 1.82571e-05, 0.064637661, 0.00057599309, 0.581026
3.03300, 0.00059450287, 0.0032754918, 1.86096e-05, 0.057984361, 0.00057599309, 0.581026
3.03400, 0.00059494972, 0.0030881630, 1.90423e-05, 0.049152061, 0.00057599309, 0.581026
3.03500, 0.00059536143, 0.0028680039, 1.94408e-05, 0.040516561, 0.00057599309, 0.581026
3.03600, 0.00059567753, 0.0026067093, 1.97439e-05, 0.031655561, 0.00057599309, 0.581026
3.03700, 0.00059608554, 0.0022902426, 2.01371e-05, 0.020467461, 0.00057599309, 0.581026
3.03800, 0.00059642020, 0.0019834081, 2.04598e-05, 0.010237461, 0.00057599309, 0.581026
3.03900, 0.00059676481, 0.0015440810, 2.07915e-05, -0.0028868390, 0.00057599309, 0.581026
3.04000, 0.00059714760, 0.0011451211, 2.11659e-05, -0.013894339, 0.00057599309, 0.581026
3.04100, 0.00059742569, 0.00077204045, 2.14378e-05, -0.024868739, 0.00057599309, 0.581026
3.04200, 0.00059776509, 0.0000000, 2.17727e-05, -0.039119039, 0.00057599309, 0.581026
3.04300, 0.00059804707, -0.0000000, 2.20542e-05, -0.051806239, 0.00057599309, 0.581026
3.04400, 0.00059826747, -0.00059801998, 2.22773e-05, -0.063800639, 0.00057599309, 0.581026
3.04500, 0.00059853324, -0.0011451211, 2.25501e-05, -0.077578139, 0.00057599309, 0.581026
3.04600, 0.00059874314, -0.0016558425, 2.27714e-05, -0.091441139, 0.00057599309, 0.581026
3.04700, 0.00059893193, -0.0022640675, 2.29763e-05, -0.10553194, 0.00057599309, 0.581026
3.04800, 0.00059909652, -0.0028049632, 2.31612e-05, -0.11933974, 0.00057599309, 0.581026
3.04900, 0.00059924188, -0.0033296358, 2.33320e-05, -0.13346314, 0.00057599309, 0.581026
3.05000, 0.00059935039, -0.0039517637, 2.34721e-05, -0.14823034, 0.00057599309, 0.581026
3.05100, 0.00059949737, -0.0045281379, 2.36543e-05, -0.16226364, 0.00057599309, 0.581026
3.05200, 0.00059958609, -0.0050033992, 2.37747e-05, -0.17352634, 0.00057599309, 0.581026
3.05300, 0.00059965591, -0.0055779661, 2.38879e-05, -0.18748744, 0.00057599309, 0.581026
3.05400, 0.00059977550, -0.0061376099, 2.40552e-05, -0.20113774, 0.00057599309, 0.581026
3.05500, 0.00059971389, -0.0066323741, 2.40385e-05, -0.21339944, 0.00057599309, 0.581026
3.05600, 0.00059976040, -0.0071928473, 2.41407e-05, -0.22703674, 0.00057599309, 0.581026
3.05700, 0.00059978301, -0.0076272152, 2.42082e-05, -0.23730524, 0.00057599309, 0.581026
3.05800, 0.00059973291, -0.0080677522, 2.42086e-05, -0.24848154, 0.00057599309, 0.581026
3.05900, 0.00059971079, -0.0085344780, 2.42423e-05, -0.26001834, 0.00057599309, 0.581026
3.06000, 0.00059965550, -0.0089703295, 2.42432e-05, -0.27115684, 0.00057599309, 0.581026
3.06100, 0.00059958589, -0.0094492547, 2.42371e-05, -0.28315584, 0.00057599309, 0.581026
3.06200, 0.00059951199, -0.0099110678, 2.42295e-05, -0.29508284, 0.00057599309, 0.581026
3.06300, 0.00059941094, -0.010346540, 2.41943e-05, -0.30654744, 0.00057599309, 0.581026
3.06400, 0.00059927758, -0.010863625, 2.41428e-05, -0.32022344, 0.00057599309, 0.581026
3.06500, 0.00059917521, -0.011309860, 2.41150e-05, -0.33206024, 0.00057599309, 0.581026
3.06600, 0.00059902431, -0.011744222, 2.40424e-05, -0.34427694, 0.00057599309, 0.581026
3.06700, 0.00059884841, -0.012231497, 2.39580e-05, -0.35804444, 0.00057599309, 0.581026
3.06800, 0.00059872215, -0.012676603, 2.39169e-05, -0.37017804, 0.00057599309, 0.581026
3.06900, 0.00059850865, -0.013147470, 2.38019e-05, -0.38419404, 0.00057599309, 0.581026
3.07000, 0.00059830447, -0.013527345, 2.36824e-05, -0.39605444, 0.00057599309, 0.581026
3.07100, 0.00059807827, -0.013995145, 2.35637e-05, -0.41048304, 0.00057599309, 0.581026
3.07200, 0.00059774946, -0.014340138, 2.33271e-05, -0.42359484, 0.00057599309, 0.581026
3.07300, 0.00059754892, -0.014782240, 2.32357e-05, -0.43733724, 0.00057599309, 0.581026
3.07400, 0.00059724818, -0.015187969, 2.30464e-05, -0.45183014, 0.00057599309, 0.581026
3.07500, 0.00059697127, -0.015537171, 2.28716e-05, -0.46489454, 0.00057599309, 0.581026
3.07600, 0.00059670288, -0.015964800, 2.27270e-05, -0.47985344, 0.00057599309, 0.581026
3.07700, 0.00059637060, -0.016344845, 2.25173e-05, -0.49502074, 0.00057599309, 0.581026
3.07800, 0.00059607884, -0.016648363, 2.23299e-05, -0.50786124, 0.00057599309, 0.581026
3.07900, 0.00059578291, -0.017138813, 2.21916e-05, -0.52548864, 0.00057599309, 0.581026
3.08000, 0.00059543468, -0.017476326, 2.19720e-05, -0.54076244, 0.00057599309, 0.581026
3.08100, 0.00059513839, -0.017940840, 2.18381e-05, -0.55819094, 0.00057599309, 0.581026
3.08200, 0.00059478109, -0.018393626, 2.16534e-05, -0.57686334, 0.00057599309, 0.581026
3.08300, 0.00059440727, -0.018714890, 2.14242e-05, -0.59322184, 0.00057599309, 0.581026
3.08400, 0.00059403786, -0.019146273, 2.12381e-05, -0.61243134, 0.00057599309, 0.581026
3.08500, 0.00059372618, -0.019610750, 2.11177e-05, -0.63118874, 0.00057599309, 0.581026
3.08600, 0.00059335964, -0.019927351, 2.09126e-05, -0.64824004, 0.00057599309, 0.581026
3.08700, 0.00059302750, -0.020406188, 2.07948e-05, -0.66840994, 0.00057599309, 0.581026
3.08800, 0.00059261865, -0.020725019, 2.05681e-05, -0.68723684, 0.00057599309, 0.581026
3.08900, 0.00059220048, -0.021104086, 2.03618e-05, -0.70810574, 0.00057599309, 0.581026
3.09000, 0.00059187863, -0.021506973, 2.02496e-05, -0.72704834, 0.00057599309, 0.581026
3.09100, 0.00059140696, -0.021790581, 1.99831e-05, -0.74810334, 0.00057599309, 0.581026
3.09200, 0.00059101496, -0.022181002, 1.98279e-05, -0.76960344, 0.00057599309, 0.581026
3.09300, 0.00059061263, -0.022503832, 1.96469e-05, -0.79020344, 0.00057599309, 0.581026
3.09400, 0.00059014805, -0.022832539, 1.94312e-05, -0.81349504, 0.00057599309, 0.581026
3.09500, 0.00058977048, -0.023238812, 1.93199e-05, -0.83583954, 0.00057599309, 0.581026
3.09600, 0.00058934088, -0.023582559, 1.91552e-05, -0.85898834, 0.00057599309, 0.581026
3.09700, 0.00058889724, -0.023911398, 1.89857e-05, -0.88278834, 0.00057599309, 0.581026
3.09800, 0.00058850459, -0.024419552, 1.89390e-05, -0.90871914, 0.00057599309, 0.581026
3.09900, 0.00058806517, -0.024773389, 1.88044e-05, -0.93346004, 0.00057599309, 0.581026
3.10000, 0.00058761140, -0.025091378, 1.86556e-05, -0.95840694, 0.00057599309, 0.581026
3.10100, 0.00058720532, -0.025508422, 1.85944e-05, -0.98366024, 0.00057599309, 0.581026
3.10200, 0.00058673332, -0.025826596, 1.84598e-05, -1.0101008, 0.00057599309, 0.581026
3.10300, 0.00058627588, -0.026279634, 1.84109e-05, -1.0386913, 0.00057599309, 0.581026
3.10400, 0.00058584840, -0.026579613, 1.83171e-05, -1.0633265, 0.00057599309, 0.581026
3.10500, 0.00058533626, -0.026849616, 1.81746e-05, -1.0916345, 0.00057599309, 0.581026
3.10600, 0.00058485864, -0.027193764, 1.81017e-05, -1.1199187, 0.00057599309, 0.581026
3.10700, 0.00058437836, -0.027472923, 1.80092e-05, -1.1475506, 0.00057599309, 0.581026
3.10800, 0.00058383057, -0.027695516, 1.78702e-05, -1.1779675, 0.00057599309, 0.581026
3.10900, 0.00058330451, -0.027997361, 1.77990e-05, -1.2088255, 0.00057599309, 0.581026
3.11000, 0.00058277412, -0.028270697, 1.77265e-05, -1.2397252, 0.00057599309, 0.581026
3.11100, 0.00058219222, -0.028518431, 1.76403e-05, -1.2733013, 0.00057599309, 0.581026
3.11200, 0.00058164256, -0.028842678, 1.76242e-05, -1.3062338, 0.00057599309, 0.581026
3.11300, 0.00058097176, -0.029075293, 1.75399e-05, -1.3448526, 0.00057599309, 0.581026
3.11400, 0.00058037252, -0.029358901, 1.75303e-05, -1.3803013, 0.00057599309, 0.581026
3.11500, 0.00057970613, -0.029633762, 1.75212e-05, -1.4193934, 0.00057599309, 0.581026
3.11600, 0.00057896793, -0.029768240, 1.74465e-05, -1.4616440, 0.00057599309, 0.581026
3.11700, 0.00057831981, -0.030098833, 1.75257e-05, -1.4999996, 0.00057599309, 0.581026
3.11800, 0.00057770373, -0.030321816, 1.75742e-05, -1.5357686, 0.00057599309, 0.581026
3.11900, 0.00057703297, -0.030607510, 1.76758e-05, -1.5745351, 0.00057599309, 0.581026
3.12000, 0.00057643199, -0.030971512, 1.78514e-05, -1.6089892, 0.00057599309, 0.581026
3.12100, 0.00057584071, -0.031289399, 1.80200e-05, -1.6421890, 0.00057599309, 0.581026
3.12200, 0.00057522980, -0.031479351, 1.81345e-05, -1.6759254, 0.00057599309, 0.581026
3.12300, 0.00057467039, -0.031842750, 1.83662e-05, -1.7060808, 0.00057599309, 0.581026
3.12400, 0.00057409018, -0.032135334, 1.85764e-05, -1.7367607, 0.00057599309, 0.581026
3.12500, 0.00057352175, -0.032522578, 1.88544e-05, -1.7657859, 0.00057599309, 0.581026
3.12600, 0.00057301014, -0.032774560, 1.90630e-05, -1.7915789, 0.00057599309, 0.581026
3.12700, 0.00057249569, -0.033073328, 1.93114e-05, -1.8167116, 0.00057599309, 0.581026
3.12800, 0.00057204117, -0.033513814, 1.96376e-05, -1.8374428, 0.00057599309, 0.581026
3.12900, 0.00057163944, -0.033878278, 1.99214e-05, -1.8553161, 0.00057599309, 0.581026
3.13000, 0.00057114626, -0.034251045, 2.02340e-05, -1.8770697, 0.00057599309, 0.581026
3.13100, 0.00057073628, -0.034738418, 2.05989e-05, -1.8934716, 0.00057599309, 0.581026
3.13200, 0.00057036100, -0.035074875, 2.08767e-05, -1.9087462, 0.00057599309, 0.581026
3.13300, 0.00056996491, -0.035569403, 2.12522e-05, -1.9234248, 0.00057599309, 0.581026
3.13400, 0.00056962801, -0.035989296, 2.15743e-05, -1.9355217, 0.00057599309, 0.581026
3.13500, 0.00056931134, -0.036448542, 2.19144e-05, -1.9460961, 0.00057599309, 0.581026
3.13600, 0.00056895982, -0.036935985, 2.22822e-05, -1.9576363, 0.00057599309, 0.581026
3.13700, 0.00056868340, -0.037397958, 2.26162e-05, -1.9658434, 0.00057599309, 0.581026
3.13800, 0.00056837625, -0.037792820, 2.29257e-05, -1.9756009, 0.00057599309, 0.581026
3.13900, 0.00056807505, -0.038278729, 2.32829e-05, -1.9841639, 0.00057599309, 0.581026
3.14000, 0.00056782493, -0.038701594, 2.35911e-05, -1.9909297, 0.00057599309, 0.581026
3.14100, 0.00056749601, -0.039063457, 2.38943e-05, -2.0011160, 0.00057599309, 0.581026
3.14200, 0.00056725642, -0.039610598, 2.42673e-05, -2.0061059, 0.00057599309, 0.581026
3.14300, 0.00056704892, -0.040019397, 2.45566e-05, -2.0108228, 0.00057599309, 0.581026
3.14400, 0.00056680674, -0.040471233, 2.48808e-05, -2.0164068, 0.00057599309, 0.581026
3.14500, 0.00056661711, -0.040918086, 2.51848e-05, -2.0199363, 0.00057599309, 0.581026
3.14600, 0.00056640213, -0.041416291, 2.55252e-05, -2.0239108, 0.00057599309, 0.581026
3.14700, 0.00056615042, -0.041924227, 2.58837e-05, -2.0290440, 0.00057599309, 0.581026
3.14800, 0.00056596408, -0.042392343, 2.61985e-05, -2.0320271, 0.00057599309, 0.581026
3.14900, 0.00056573379, -0.042812198, 2.65028e-05, -2.0368853, 0.00057599309, 0.581026
3.15000, 0.00056558486, -0.043387681, 2.68614e-05, -2.0375800, 0.00057599309, 0.581026
3.15100, 0.00056539144, -0.043875527, 2.71893e-05, -2.0404701, 0.00057599309, 0.581026
3.15200, 0.00056518418, -0.044345915, 2.75116e-05, -2.0439234, 0.00057599309, 0.581026
3.15300, 0.00056505068, -0.044849940, 2.78266e-05, -2.0445547, 0.00057599309, 0.581026
3.15400, 0.00056498266, -0.045353625, 2.81156e-05, -2.0430400, 0.00057599309, 0.581026
3.15500, 0.00056478129, -0.045755450, 2.84018e-05, -2.0466576, 0.00057599309, 0.581026
3.15600, 0.00056465280, -0.046186063, 2.86751e-05, -2.0476525, 0.00057599309, 0.581026
3.15700, 0.00056453366, -0.046620380, 2.89465e-05, -2.0483108, 0.00057599309, 0.581026
3.15800, 0.00056435875, -0.046956815, 2.91880e-05, -2.0514370, 0.00057599309, 0.581026
3.15900, 0.00056424345, -0.047418036, 2.94737e-05, -2.0517186, 0.00057599309, 0.581026
3.16000, 0.00056408153, -0.047883533, 2.97778e-05, -2.0534388, 0.00057599309, 0.581026
3.16100, 0.00056393562, -0.048351951, 3.00779e-05, -2.0546091, 0.00057599309, 0.581026
3.16200, 0.00056383752, -0.048785333, 3.03402e-05, -2.0545691, 0.00057599309, 0.581026
3.16300, 0.00056369961, -0.049185812, 3.06016e-05, -2.0559506, 0.00057599309, 0.581026
3.16400, 0.00056361043, -0.049663570, 3.08854e-05, -2.0553101, 0.00057599309, 0.581026
3.16500, 0.00056352165, -0.050086804, 3.11389e-05, -2.0550685, 0.00057599309, 0.581026
3.16600, 0.00056337779, -0.050576102, 3.14492e-05, -2.0559904, 0.00057599309, 0.581026
3.16700, 0.00056329944, -0.051058382, 3.17305e-05, -2.0550432, 0.00057599309, 0.581026
3.16800, 0.00056324228, -0.051472470, 3.19675e-05, -2.0539630, 0.00057599309, 0.581026
3.16900, 0.00056315063, -0.051903944, 3.22269e-05, -2.0537763, 0.00057599309, 0.581026
3.17000, 0.00056306608, -0.052450236, 3.25443e-05, -2.0526430, 0.00057599309, 0.581026
3.17100, 0.00056302594, -0.052894037, 3.27906e-05, -2.0509463, 0.00057599309, 0.581026
3.17200, 0.00056289517, -0.053212132, 3.30058e-05, -2.0526102, 0.00057599309, 0.581026
3.17300, 0.00056286138, -0.053670749, 3.32581e-05, -2.0506658, 0.00057599309, 0.581026
3.17400, 0.00056278579, -0.054028444, 3.34731e-05, -2.0505404, 0.00057599309, 0.581026
3.17500, 0.00056273665, -0.054485667, 3.37303e-05, -2.0490787, 0.00057599309, 0.581026
3.17600, 0.00056273711, -0.054900002, 3.39472e-05, -2.0465409, 0.00057599309, 0.581026
3.17700, 0.00056260647, -0.055263773, 3.41860e-05, -2.0479090, 0.00057599309, 0.581026
3.17800, 0.00056265026, -0.055715155, 3.44057e-05, -2.0440359, 0.00057599309, 0.581026
3.17900, 0.00056263785, -0.056112982, 3.46194e-05, -2.0420267, 0.00057599309, 0.581026
3.18000, 0.00056258329, -0.056363240, 3.47708e-05, -2.0420309, 0.00057599309, 0.581026
3.18100, 0.00056261134, -0.057005014, 3.50974e-05, -2.0375983, 0.00057599309, 0.581026
3.18200, 0.00056256922, -0.057391830, 3.53167e-05, -2.0365204, 0.00057599309, 0.581026
3.18300, 0.00056253085, -0.057715129, 3.54996e-05, -2.0357313, 0.00057599309, 0.581026
3.18400, 0.00056253834, -0.058210034, 3.57583e-05, -2.0327886, 0.00057599309, 0.581026
3.18500, 0.00056254505, -0.058718037, 3.60237e-05, -2.0298502, 0.00057599309, 0.581026
3.18600, 0.00056250967, -0.059164260, 3.62718e-05, -2.0283713, 0.00057599309, 0.581026
3.18700, 0.00056251645, -0.059556097, 3.64764e-05, -2.0261208, 0.00057599309, 0.581026
3.18800, 0.00056248591, -0.059896603, 3.66666e-05, -2.0251237, 0.00057599309, 0.581026
3.18900, 0.00056242960, -0.060370684, 3.69371e-05, -2.0240974, 0.00057599309, 0.581026
3.19000, 0.00056251657, -0.060774378, 3.71210e-05, -2.0198278, 0.00057599309, 0.581026
3.19100, 0.00056245607, -0.060945876, 3.72322e-05, -2.0204927, 0.00057599309, 0.581026
3.19200, 0.00056249038, -0.061470110, 3.74983e-05, -2.0170041, 0.00057599309, 0.581026
3.19300, 0.00056255719, -0.061799120, 3.76519e-05, -2.0136949, 0.00057599309, 0.581026
3.19400, 0.00056248259, -0.062165737, 3.78709e-05, -2.0137757, 0.00057599309, 0.581026
3.19500, 0.00056249642, -0.062519714, 3.80544e-05, -2.0117220, 0.00057599309, 0.581026
3.19600, 0.00056247458, -0.062873602, 3.82496e-05, -2.0105726, 0.00057599309, 0.581026
3.19700, 0.00056242133, -0.063327312, 3.85088e-05, -2.0097334, 0.00057599309, 0.581026
3.19800, 0.00056244142, -0.063823603, 3.87665e-05, -2.0069246, 0.00057599309, 0.581026
3.19900, 0.00056239842, -0.064074501, 3.89139e-05, -2.0068149, 0.00057599309, 0.581026
3.20000, 0.00056241392, -0.064531796, 3.91528e-05, -2.0043460, 0.00057599309, 0.581026
3.20100, 0.00056247585, -0.064946398, 3.93554e-05, -2.0009748, 0.00057599309, 0.581026
3.20200, 0.00056248186, -0.065246932, 3.95133e-05, -1.9995005, 0.00057599309, 0.581026
3.20300, 0.00056251644, -0.065709695, 3.97506e-05, -1.9966352, 0.00057599309, 0.581026
3.20400, 0.00056252844, -0.066139467, 3.99766e-05, -1.9944933, 0.00057599309, 0.581026
3.20500, 0.00056251603, -0.066483088, 4.01646e-05, -1.9933180, 0.00057599309, 0.581026
3.20600, 0.00056257985, -0.066958696, 4.04010e-05, -1.9897974, 0.00057599309, 0.581026
3.20700, 0.00056260969, -0.067236066, 4.05402e-05, -1.9879467, 0.00057599309, 0.581026
3.20800, 0.00056261121, -0.067541443, 4.07043e-05, -1.9866500, 0.00057599309, 0.581026
3.20900, 0.00056261240, -0.067895547, 4.08942e-05, -1.9851791, 0.00057599309, 0.581026
3.21000, 0.00056265896, -0.068352625, 4.11267e-05, -1.9822532, 0.00057599309, 0.581026
3.21100, 0.00056266351, -0.068660863, 4.12908e-05, -1.9809279, 0.00057599309, 0.581026
3.21200, 0.00056274629, -0.069058485, 4.14816e-05, -1.9774521, 0.00057599309, 0.581026
3.21300, 0.00056274461, -0.069438376, 4.16866e-05, -1.9760263, 0.00057599309, 0.581026
3.21400, 0.00056276170, -0.069875985, 4.19182e-05, -1.9739633, 0.00057599309, 0.581026
3.21500, 0.00056281371, -0.070120566, 4.20356e-05, -1.9718534, 0.00057599309, 0.581026
3.21600, 0.00056279376, -0.070577621, 4.22878e-05, -1.9706080, 0.00057599309, 0.581026
3.21700, 0.00056281125, -0.070924163, 4.24703e-05, -1.9689359, 0.00057599309, 0.581026
3.21800, 0.00056287499, -0.071438737, 4.27322e-05, -1.9656253, 0.00057599309, 0.581026
3.21900, 0.00056287550, -0.071682163, 4.28635e-05, -1.9647455, 0.00057599309, 0.581026
3.22000, 0.00056292479, -0.072057344, 4.30538e-05, -1.9623110, 0.00057599309, 0.581026
3.22100, 0.00056298144, -0.072475053, 4.32650e-05, -1.9595913, 0.00057599309, 0.581026
3.22200, 0.00056298056, -0.072813399, 4.34489e-05, -1.9584463, 0.00057599309, 0.581026
3.22300, 0.00056310759, -0.073159963, 4.36036e-05, -1.9544559, 0.00057599309, 0.581026
3.22400, 0.00056314761, -0.073331006, 4.36866e-05, -1.9529957, 0.00057599309, 0.581026
3.22500, 0.00056318569, -0.073708341, 4.38818e-05, -1.9509082, 0.00057599309, 0.581026
3.22600, 0.00056328243, -0.074031390, 4.40334e-05, -1.9477246, 0.00057599309, 0.581026
