time(s), Phieff(Wb), Thetaeff(rad), Phipl(Wb), DelTheta(rad), Phiext(Wb), Thetaext(rad)
3.00000, 0.00054068567, 0.016388549, 2.12297e-05, 0.48299964, 0.00052132116, -0.575905
3.00100, 0.00054057754, 0.016135635, 2.10760e-05, 0.47914434, 0.00052132116, -0.575905
3.00200, 0.00054045280, 0.016194634, 2.09738e-05, 0.48283534, 0.00052132116, -0.575905
3.00300, 0.00054035626, 0.015923677, 2.08270e-05, 0.47829964, 0.00052132116, -0.575905
3.00400, 0.00054018470, 0.015792118, 2.06410e-05, 0.47841864, 0.00052132116, -0.575905
3.00500, 0.00054009947, 0.015780792, 2.05610e-05, 0.47986324, 0.00052132116, -0.575905
3.00600, 0.00053999597, 0.015644221, 2.04359e-05, 0.47849934, 0.00052132116, -0.575905
3.00700, 0.00053986047, 0.015448681, 2.02696e-05, 0.47639394, 0.00052132116, -0.575905
3.00800, 0.00053974591, 0.015475666, 2.01710e-05, 0.47938894, 0.00052132116, -0.575905
3.00900, 0.00053963423, 0.015301360, 2.00309e-05, 0.47729674, 0.00052132116, -0.575905
3.01000, 0.00053949728, 0.015180118, 1.98799e-05, 0.47710004, 0.00052132116, -0.575905
3.01100, 0.00053942595, 0.015199739, 1.98188e-05, 0.47903254, 0.00052132116, -0.575905
3.01200, 0.00053926422, 0.014986478, 1.96243e-05, 0.47692174, 0.00052132116, -0.575905
3.01300, 0.00053918716, 0.015046020, 1.95653e-05, 0.47985614, 0.00052132116, -0.575905
3.01400, 0.00053907175, 0.014874694, 1.94238e-05, 0.47802574, 0.00052132116, -0.575905
3.01500, 0.00053893014, 0.014770138, 1.92711e-05, 0.47823624, 0.00052132116, -0.575905
3.01600, 0.00053881250, 0.014709478, 1.91503e-05, 0.47913744, 0.00052132116, -0.575905
3.01700, 0.00053872024, 0.014558773, 1.90332e-05, 0.47716024, 0.00052132116, -0.575905
3.01800, 0.00053857415, 0.014381644, 1.88615e-05, 0.47564684, 0.00052132116, -0.575905
3.01900, 0.00053845776, 0.014369205, 1.87513e-05, 0.47769044, 0.00052132116, -0.575905
3.02000, 0.00053833704, 0.014273477, 1.86199e-05, 0.47772614, 0.00052132116, -0.575905
3.02100, 0.00053820470, 0.014033424, 1.84473e-05, 0.47420214, 0.00052132116, -0.575905
3.02200, 0.00053811750, 0.014080068, 1.83778e-05, 0.47740174, 0.00052132116, -0.575905
3.02300, 0.00053795266, 0.013836660, 1.81744e-05, 0.47441414, 0.00052132116, -0.575905
3.02400, 0.00053784551, 0.013819418, 1.80723e-05, 0.47628314, 0.00052132116, -0.575905
3.02500, 0.00053774264, 0.013702466, 1.79528e-05, 0.47534354, 0.00052132116, -0.575905
3.02600, 0.00053761701, 0.013628314, 1.78221e-05, 0.47614934, 0.00052132116, -0.575905
3.02700, 0.00053752495, 0.013584507, 1.77279e-05, 0.47695104, 0.00052132116, -0.575905
3.02800, 0.00053738721, 0.013478788, 1.75783e-05, 0.47703664, 0.00052132116, -0.575905
3.02900, 0.00053725790, 0.013345460, 1.74311e-05, 0.47622894, 0.00052132116, -0.575905
3.03000, 0.00053717641, 0.013309682, 1.73495e-05, 0.47719124, 0.00052132116, -0.575905
3.03100, 0.00053701869, 0.013156534, 1.71721e-05, 0.47648204, 0.00052132116, -0.575905
3.03200, 0.00053691713, 0.013006167, 1.70459e-05, 0.47440274, 0.00052132116, -0.575905
3.03300, 0.00053679259, 0.012969451, 1.69247e-05, 0.47637874, 0.00052132116, -0.575905
3.03400, 0.00053671068, 0.012779630, 1.68079e-05, 0.47261734, 0.00052132116, -0.575905
3.03500, 0.00053655256, 0.012671901, 1.66403e-05, 0.47326044, 0.00052132116, -0.575905
3.03600, 0.00053646101, 0.012586948, 1.65377e-05, 0.47286074, 0.00052132116, -0.575905
3.03700, 0.00053635361, 0.012352725, 1.63906e-05, 0.46859184, 0.00052132116, -0.575905
3.03800, 0.00053623240, 0.012396078, 1.62882e-05, 0.47279624, 0.00052132116, -0.575905
3.03900, 0.00053614786, 0.012280133, 1.61863e-05, 0.47139484, 0.00052132116, -0.575905
3.04000, 0.00053599254, 0.012109055, 1.60081e-05, 0.47007584, 0.00052132116, -0.575905
3.04100, 0.00053589529, 0.012079485, 1.59118e-05, 0.47146834, 0.00052132116, -0.575905
3.04200, 0.00053576831, 0.011955486, 1.57684e-05, 0.47071554, 0.00052132116, -0.575905
3.04300, 0.00053566713, 0.011840261, 1.56512e-05, 0.46966724, 0.00052132116, -0.575905
3.04400, 0.00053555810, 0.011885482, 1.55603e-05, 0.47380234, 0.00052132116, -0.575905
3.04500, 0.00053541424, 0.011708640, 1.53903e-05, 0.47182704, 0.00052132116, -0.575905
3.04600, 0.00053529381, 0.011616644, 1.52604e-05, 0.47202204, 0.00052132116, -0.575905
3.04700, 0.00053519287, 0.011585818, 1.51609e-05, 0.47361604, 0.00052132116, -0.575905
3.04800, 0.00053509484, 0.011372928, 1.50264e-05, 0.46936234, 0.00052132116, -0.575905
3.04900, 0.00053494182, 0.011294038, 1.48688e-05, 0.47075884, 0.00052132116, -0.575905
3.05000, 0.00053488844, 0.011294038, 1.48205e-05, 0.47229554, 0.00052132116, -0.575905
3.05100, 0.00053475041, 0.011021593, 1.46361e-05, 0.46690014, 0.00052132116, -0.575905
3.05200, 0.00053463316, 0.011037804, 1.45313e-05, 0.47054184, 0.00052132116, -0.575905
3.05300, 0.00053450686, 0.010863625, 1.43789e-05, 0.46814054, 0.00052132116, -0.575905
3.05400, 0.00053438213, 0.010764412, 1.42422e-05, 0.46797644, 0.00052132116, -0.575905
3.05500, 0.00053431349, 0.010714459, 1.41703e-05, 0.46843374, 0.00052132116, -0.575905
3.05600, 0.00053414329, 0.010563187, 1.39806e-05, 0.46768474, 0.00052132116, -0.575905
3.05700, 0.00053407000, 0.010432596, 1.38868e-05, 0.46531434, 0.00052132116, -0.575905
3.05800, 0.00053393700, 0.010409717, 1.37595e-05, 0.46824944, 0.00052132116, -0.575905
3.05900, 0.00053384945, 0.010277176, 1.36512e-05, 0.46602034, 0.00052132116, -0.575905
3.06000, 0.00053369112, 0.010183956, 1.34854e-05, 0.46712314, 0.00052132116, -0.575905
3.06100, 0.00053358945, 0.010166383, 1.33880e-05, 0.46941864, 0.00052132116, -0.575905
3.06200, 0.00053347370, 0.010030627, 1.32541e-05, 0.46803994, 0.00052132116, -0.575905
3.06300, 0.00053336818, 0.0099410927, 1.31385e-05, 0.46790524, 0.00052132116, -0.575905
3.06400, 0.00053323991, 0.0098507432, 1.30008e-05, 0.46824494, 0.00052132116, -0.575905
3.06500, 0.00053312349, 0.0097105764, 1.28660e-05, 0.46678184, 0.00052132116, -0.575905
3.06600, 0.00053304039, 0.0097228447, 1.27919e-05, 0.46974854, 0.00052132116, -0.575905
3.06700, 0.00053292388, 0.0095496494, 1.26483e-05, 0.46668234, 0.00052132116, -0.575905
3.06800, 0.00053279242, 0.0094176624, 1.24981e-05, 0.46533814, 0.00052132116, -0.575905
3.06900, 0.00053271611, 0.0094555607, 1.24380e-05, 0.46962374, 0.00052132116, -0.575905
3.07000, 0.00053261710, 0.0091869896, 1.22886e-05, 0.46172894, 0.00052132116, -0.575905
3.07100, 0.00053247506, 0.0090891477, 1.21383e-05, 0.46249364, 0.00052132116, -0.575905
3.07200, 0.00053240146, 0.0091088004, 1.20744e-05, 0.46561514, 0.00052132116, -0.575905
3.07300, 0.00053223229, 0.0089236954, 1.18802e-05, 0.46360344, 0.00052132116, -0.575905
3.07400, 0.00053220881, 0.0088633765, 1.18448e-05, 0.46163674, 0.00052132116, -0.575905
3.07500, 0.00053204583, 0.0087755164, 1.16780e-05, 0.46369224, 0.00052132116, -0.575905
3.07600, 0.00053197260, 0.0086936280, 1.15942e-05, 0.46283894, 0.00052132116, -0.575905
3.07700, 0.00053185577, 0.0087073296, 1.14884e-05, 0.46714784, 0.00052132116, -0.575905
3.07800, 0.00053176588, 0.0086247930, 1.13903e-05, 0.46709424, 0.00052132116, -0.575905
3.07900, 0.00053167673, 0.0084643494, 1.12745e-05, 0.46320904, 0.00052132116, -0.575905
3.08000, 0.00053154583, 0.0085204989, 1.11656e-05, 0.47017354, 0.00052132116, -0.575905
3.08100, 0.00053146379, 0.0083509181, 1.10549e-05, 0.46571494, 0.00052132116, -0.575905
3.08200, 0.00053132574, 0.0082576089, 1.09076e-05, 0.46633564, 0.00052132116, -0.575905
3.08300, 0.00053129784, 0.0083509181, 1.09015e-05, 0.47148664, 0.00052132116, -0.575905
3.08400, 0.00053114630, 0.0081339730, 1.07182e-05, 0.46761214, 0.00052132116, -0.575905
3.08500, 0.00053108540, 0.0080158683, 1.06369e-05, 0.46433394, 0.00052132116, -0.575905
3.08600, 0.00053098385, 0.0079786023, 1.05351e-05, 0.46624934, 0.00052132116, -0.575905
3.08700, 0.00053088019, 0.0078429785, 1.04122e-05, 0.46399314, 0.00052132116, -0.575905
3.08800, 0.00053078666, 0.0077819424, 1.03117e-05, 0.46426704, 0.00052132116, -0.575905
3.08900, 0.00053069717, 0.0077049672, 1.02155e-05, 0.46452404, 0.00052132116, -0.575905
3.09000, 0.00053061866, 0.0075486628, 1.01097e-05, 0.45978414, 0.00052132116, -0.575905
3.09100, 0.00053051883, 0.0076584108, 1.00393e-05, 0.46864604, 0.00052132116, -0.575905
3.09200, 0.00053043725, 0.0074772602, 9.92746e-06, 0.46327574, 0.00052132116, -0.575905
3.09300, 0.00053030828, 0.0073809819, 9.79046e-06, 0.46404624, 0.00052132116, -0.575905
3.09400, 0.00053024579, 0.0073971152, 9.73563e-06, 0.46718984, 0.00052132116, -0.575905
3.09500, 0.00053012002, 0.0073567154, 9.61127e-06, 0.47022214, 0.00052132116, -0.575905
3.09600, 0.00053003070, 0.0071928473, 9.49548e-06, 0.46575374, 0.00052132116, -0.575905
3.09700, 0.00052991876, 0.0072506224, 9.40516e-06, 0.47347964, 0.00052132116, -0.575905
3.09800, 0.00052984860, 0.0070843012, 9.30410e-06, 0.46746184, 0.00052132116, -0.575905
3.09900, 0.00052973576, 0.0071262452, 9.20896e-06, 0.47438764, 0.00052132116, -0.575905
3.10000, 0.00052965893, 0.0069740652, 9.10605e-06, 0.46963814, 0.00052132116, -0.575905
3.10100, 0.00052956684, 0.0068620592, 8.99914e-06, 0.46797684, 0.00052132116, -0.575905
3.10200, 0.00052949154, 0.0068009840, 8.91871e-06, 0.46839984, 0.00052132116, -0.575905
3.10300, 0.00052938958, 0.0067922142, 8.82083e-06, 0.47185064, 0.00052132116, -0.575905
3.10400, 0.00052930908, 0.0065236390, 8.69270e-06, 0.46114774, 0.00052132116, -0.575905
3.10500, 0.00052925617, 0.0066143759, 8.66139e-06, 0.46819574, 0.00052132116, -0.575905
3.10600, 0.00052912505, 0.0064961710, 8.51734e-06, 0.46789234, 0.00052132116, -0.575905
3.10700, 0.00052904846, 0.0064223483, 8.43056e-06, 0.46698504, 0.00052132116, -0.575905
3.10800, 0.00052894445, 0.0064223483, 8.33520e-06, 0.47194004, 0.00052132116, -0.575905
3.10900, 0.00052888135, 0.0063099950, 8.25363e-06, 0.46842444, 0.00052132116, -0.575905
3.11000, 0.00052879328, 0.0063005416, 8.16921e-06, 0.47168024, 0.00052132116, -0.575905
3.11100, 0.00052871778, 0.0062625860, 8.09547e-06, 0.47412184, 0.00052132116, -0.575905
3.11200, 0.00052856614, 0.0060790619, 7.91690e-06, 0.47043504, 0.00052132116, -0.575905
3.11300, 0.00052855591, 0.0061084060, 7.91302e-06, 0.47253644, 0.00052132116, -0.575905
3.11400, 0.00052839105, 0.0060298378, 7.74451e-06, 0.47592234, 0.00052132116, -0.575905
3.11500, 0.00052836024, 0.0059100273, 7.69256e-06, 0.47054624, 0.00052132116, -0.575905
3.11600, 0.00052828400, 0.0058999332, 7.61791e-06, 0.47310594, 0.00052132116, -0.575905
3.11700, 0.00052816807, 0.0058082980, 7.49578e-06, 0.47448004, 0.00052132116, -0.575905
3.11800, 0.00052809963, 0.0056099319, 7.38901e-06, 0.46459814, 0.00052132116, -0.575905
3.11900, 0.00052805555, 0.0056417165, 7.35661e-06, 0.46949294, 0.00052132116, -0.575905
3.12000, 0.00052794117, 0.0054153078, 7.20273e-06, 0.46014154, 0.00052132116, -0.575905
3.12100, 0.00052781573, 0.0053932494, 7.08567e-06, 0.46648474, 0.00052132116, -0.575905
3.12200, 0.00052777118, 0.0054153078, 7.04906e-06, 0.47037664, 0.00052132116, -0.575905
3.12300, 0.00052764766, 0.0052248435, 6.89567e-06, 0.46418624, 0.00052132116, -0.575905
3.12400, 0.00052761574, 0.0052476097, 6.86842e-06, 0.46671824, 0.00052132116, -0.575905
3.12500, 0.00052749714, 0.0051674889, 6.74375e-06, 0.46828534, 0.00052132116, -0.575905
3.12600, 0.00052740753, 0.0050743730, 6.64469e-06, 0.46783124, 0.00052132116, -0.575905
3.12700, 0.00052735023, 0.0051211426, 6.59947e-06, 0.47380294, 0.00052132116, -0.575905
3.12800, 0.00052725387, 0.0050390111, 6.49369e-06, 0.47365664, 0.00052132116, -0.575905
3.12900, 0.00052712661, 0.0049555185, 6.36058e-06, 0.47579844, 0.00052132116, -0.575905
3.13000, 0.00052708648, 0.0049434761, 6.31829e-06, 0.47637454, 0.00052132116, -0.575905
3.13100, 0.00052695370, 0.0047966070, 6.17066e-06, 0.47554904, 0.00052132116, -0.575905
3.13200, 0.00052686817, 0.0046834336, 6.06640e-06, 0.47158264, 0.00052132116, -0.575905
3.13300, 0.00052680851, 0.0047966070, 6.03828e-06, 0.48531824, 0.00052132116, -0.575905
3.13400, 0.00052674073, 0.0045674569, 5.92473e-06, 0.47064344, 0.00052132116, -0.575905
3.13500, 0.00052663015, 0.0044884747, 5.80725e-06, 0.47193504, 0.00052132116, -0.575905
3.13600, 0.00052655724, 0.0044350382, 5.73082e-06, 0.47321654, 0.00052132116, -0.575905
3.13700, 0.00052645618, 0.0042846538, 5.60289e-06, 0.46612794, 0.00052132116, -0.575905
3.13800, 0.00052638582, 0.0042145238, 5.52559e-06, 0.46587744, 0.00052132116, -0.575905
3.13900, 0.00052631515, 0.0040998212, 5.43579e-06, 0.46042784, 0.00052132116, -0.575905
3.14000, 0.00052618533, 0.0039967569, 5.29625e-06, 0.46115354, 0.00052132116, -0.575905
3.14100, 0.00052613145, 0.0039967569, 5.24834e-06, 0.46588914, 0.00052132116, -0.575905
3.14200, 0.00052603179, 0.0038602047, 5.12324e-06, 0.45842984, 0.00052132116, -0.575905
3.14300, 0.00052590872, 0.0037505617, 4.98893e-06, 0.45816074, 0.00052132116, -0.575905
3.14400, 0.00052590101, 0.0038291984, 4.99920e-06, 0.46684404, 0.00052132116, -0.575905
3.14500, 0.00052573124, 0.0037025779, 4.81774e-06, 0.46861164, 0.00052132116, -0.575905
3.14600, 0.00052573085, 0.0035881216, 4.79104e-06, 0.45589174, 0.00052132116, -0.575905
3.14700, 0.00052554233, 0.0035040791, 4.60395e-06, 0.46483274, 0.00052132116, -0.575905
3.14800, 0.00052555310, 0.0034870273, 4.60698e-06, 0.46045044, 0.00052132116, -0.575905
3.14900, 0.00052543885, 0.0034004871, 4.48272e-06, 0.46046044, 0.00052132116, -0.575905
3.15000, 0.00052537310, 0.0033296358, 4.41478e-06, 0.46235684, 0.00052132116, -0.575905
3.15100, 0.00052525863, 0.0031832056, 4.27294e-06, 0.45290254, 0.00052132116, -0.575905
3.15200, 0.00052523138, 0.0031265267, 4.23891e-06, 0.45037844, 0.00052132116, -0.575905
3.15300, 0.00052512643, 0.0030881630, 4.13341e-06, 0.45511284, 0.00052132116, -0.575905
3.15400, 0.00052500849, 0.0028261330, 3.97578e-06, 0.43710404, 0.00052132116, -0.575905
3.15500, 0.00052496562, 0.0029700999, 3.96013e-06, 0.45588004, 0.00052132116, -0.575905
3.15600, 0.00052487128, 0.0027621367, 3.83405e-06, 0.44107074, 0.00052132116, -0.575905
3.15700, 0.00052474134, 0.0027186358, 3.70253e-06, 0.44683694, 0.00052132116, -0.575905
3.15800, 0.00052473795, 0.0028049632, 3.71659e-06, 0.45822974, 0.00052132116, -0.575905
3.15900, 0.00052457309, 0.0025837421, 3.51797e-06, 0.44510324, 0.00052132116, -0.575905
3.16000, 0.00052452175, 0.0026067093, 3.48023e-06, 0.45733844, 0.00052132116, -0.575905
3.16100, 0.00052443921, 0.0026067093, 3.40280e-06, 0.46573034, 0.00052132116, -0.575905
3.16200, 0.00052429532, 0.0024897563, 3.24531e-06, 0.46534764, 0.00052132116, -0.575905
3.16300, 0.00052425105, 0.0024657000, 3.19929e-06, 0.46696364, 0.00052132116, -0.575905
3.16400, 0.00052410716, 0.0023417152, 3.04661e-06, 0.47022894, 0.00052132116, -0.575905
3.16500, 0.00052407551, 0.0022107877, 2.99063e-06, 0.45370704, 0.00052132116, -0.575905
3.16600, 0.00052393947, 0.0022640675, 2.87104e-06, 0.47627844, 0.00052132116, -0.575905
3.16700, 0.00052392040, 0.0021561920, 2.83208e-06, 0.46182894, 0.00052132116, -0.575905
3.16800, 0.00052376350, 0.0019834081, 2.65257e-06, 0.45421614, 0.00052132116, -0.575905
3.16900, 0.00052371690, 0.0020132356, 2.62133e-06, 0.47134284, 0.00052132116, -0.575905
3.17000, 0.00052363487, 0.0018269814, 2.50623e-06, 0.44785374, 0.00052132116, -0.575905
3.17100, 0.00052347558, 0.0017263351, 2.32817e-06, 0.44204714, 0.00052132116, -0.575905
3.17200, 0.00052345860, 0.0017605233, 2.33240e-06, 0.46508484, 0.00052132116, -0.575905
3.17300, 0.00052332368, 0.0016558425, 2.17940e-06, 0.45891404, 0.00052132116, -0.575905
3.17400, 0.00052326236, 0.0016558425, 2.12047e-06, 0.46739284, 0.00052132116, -0.575905
3.17500, 0.00052320065, 0.0015440810, 2.03742e-06, 0.44950204, 0.00052132116, -0.575905
3.17600, 0.00052308586, 0.0014648439, 1.91858e-06, 0.45637624, 0.00052132116, -0.575905
3.17700, 0.00052305295, 0.0014648439, 1.89566e-06, 0.47201204, 0.00052132116, -0.575905
3.17800, 0.00052293888, 0.0013810680, 1.77557e-06, 0.47797714, 0.00052132116, -0.575905
3.17900, 0.00052289446, 0.0012448779, 1.70916e-06, 0.45446874, 0.00052132116, -0.575905
3.18000, 0.00052279739, 0.0012448779, 1.61711e-06, 0.47355824, 0.00052132116, -0.575905
3.18100, 0.00052273248, 0.0011451211, 1.53900e-06, 0.46321954, 0.00052132116, -0.575905
3.18200, 0.00052263979, 0.00097656250, 1.42320e-06, 0.43865994, 0.00052132116, -0.575905
3.18300, 0.00052257637, 0.0010918301, 1.37641e-06, 0.47575944, 0.00052132116, -0.575905
3.18400, 0.00052252403, 0.00091349060, 1.27862e-06, 0.39877874, 0.00052132116, -0.575905
3.18500, 0.00052241940, 0.00091349060, 1.18482e-06, 0.43751694, 0.00052132116, -0.575905
3.18600, 0.00052234778, 0.00077204045, 1.10698e-06, 0.43619084, 0.00052132116, -0.575905
3.18700, 0.00052227944, 0.00059801998, 1.01425e-06, 0.38651024, 0.00052132116, -0.575905
3.18800, 0.00052219488, 0.00059801998, 9.31156e-07, 0.40578884, 0.00052132116, -0.575905
3.18900, 0.00052215116, 0.00059801998, 8.87467e-07, 0.41455824, 0.00052132116, -0.575905
3.19000, 0.00052201668, 0.00048828125, 7.30118e-07, 0.36171574, 0.00052132116, -0.575905
3.19100, 0.00052201255, 0.00048828125, 7.40163e-07, 0.41772584, 0.00052132116, -0.575905
3.19200, 0.00052185781, 0.00048828125, 5.64667e-07, 0.36891514, 0.00052132116, -0.575905
3.19300, 0.00052181781, 0.0000000, 5.15311e-07, 0.32252554, 0.00052132116, -0.575905
3.19400, 0.00052176061, 0.00048828125, 4.78064e-07, 0.45728494, 0.00052132116, -0.575905
3.19500, 0.00052167431, 0.0000000, 3.68262e-07, 0.33999954, 0.00052132116, -0.575905
3.19600, 0.00052159540, 0.0000000, 2.78695e-07, 0.23150014, 0.00052132116, -0.575905
3.19700, 0.00052150338, 0.0000000, 2.13513e-07, 0.60084204, 0.00052132116, -0.575905
3.19800, 0.00052146637, 0.0000000, 1.46488e-07, 0.18494064, 0.00052132116, -0.575905
3.19900, 0.00052136297, 0.0000000, 4.21277e-08, 0.17545514, 0.00052132116, -0.575905
3.20000, 0.00052132116, 0.0000000, 0.00000, 2.1991150, 0.00052132116, -0.575905
3.20100, 0.00052121664, -0.0000000, 1.32045e-07, -2.4318616, 0.00052132116, -0.575905
3.20200, 0.00052117851, -0.0000000, 1.64607e-07, -2.5669105, 0.00052132116, -0.575905
3.20300, 0.00052109252, -0.0000000, 2.65825e-07, -2.5540240, 0.00052132116, -0.575905
3.20400, 0.00052104317, -0.00048828125, 3.50717e-07, -2.4337461, 0.00052132116, -0.575905
3.20500, 0.00052099316, -0.00048828125, 3.74611e-07, -2.5852201, 0.00052132116, -0.575905
3.20600, 0.00052089224, -0.00048828125, 4.80014e-07, -2.6238082, 0.00052132116, -0.575905
3.20700, 0.00052079978, -0.00048828125, 5.92236e-07, -2.5952766, 0.00052132116, -0.575905
3.20800, 0.00052078058, -0.00048828125, 5.95876e-07, -2.6552184, 0.00052132116, -0.575905
3.20900, 0.00052072481, -0.00059801998, 6.62878e-07, -2.6376112, 0.00052132116, -0.575905
3.21000, 0.00052062115, -0.00059801998, 7.64875e-07, -2.6746743, 0.00052132116, -0.575905
3.21100, 0.00052059892, -0.00048828125, 7.61096e-07, -2.7685244, 0.00052132116, -0.575905
3.21200, 0.00052047615, -0.00077204045, 9.22588e-07, -2.6765254, 0.00052132116, -0.575905
3.21300, 0.00052044684, -0.00059801998, 9.27200e-07, -2.7501347, 0.00052132116, -0.575905
3.21400, 0.00052033895, -0.00059801998, 1.04686e-06, -2.7362721, 0.00052132116, -0.575905
3.21500, 0.00052029215, -0.00059801998, 1.08851e-06, -2.7573745, 0.00052132116, -0.575905
3.21600, 0.00052022487, -0.00077204045, 1.15849e-06, -2.7603810, 0.00052132116, -0.575905
3.21700, 0.00052017371, -0.00077204045, 1.21970e-06, -2.7436574, 0.00052132116, -0.575905
3.21800, 0.00052004355, -0.00091349060, 1.35528e-06, -2.7494266, 0.00052132116, -0.575905
3.21900, 0.00052004378, -0.00077204045, 1.34110e-06, -2.7800825, 0.00052132116, -0.575905
3.22000, 0.00051997020, -0.00097656250, 1.44397e-06, -2.7287896, 0.00052132116, -0.575905
3.22100, 0.00051988984, -0.0010918301, 1.54206e-06, -2.7084591, 0.00052132116, -0.575905
3.22200, 0.00051984728, -0.00097656250, 1.56310e-06, -2.7501857, 0.00052132116, -0.575905
3.22300, 0.00051976505, -0.0011451211, 1.66856e-06, -2.7205322, 0.00052132116, -0.575905
3.22400, 0.00051971680, -0.0011451211, 1.71635e-06, -2.7265327, 0.00052132116, -0.575905
3.22500, 0.00051965357, -0.0011451211, 1.77934e-06, -2.7334907, 0.00052132116, -0.575905
