time(s), Phieff(Wb), Thetaeff(rad), Phipl(Wb), DelTheta(rad), Phiext(Wb), Thetaext(rad)
3.00000, 0.00053872333, 0.033011984, 3.58503e-05, 2.5748222, 0.00056956045, 0.580479
3.00100, 0.00053891906, 0.032785472, 3.56199e-05, 2.5748475, 0.00056956045, 0.580479
3.00200, 0.00053909607, 0.032495070, 3.53878e-05, 2.5759633, 0.00056956045, 0.580479
3.00300, 0.00053926647, 0.032248300, 3.51722e-05, 2.5766914, 0.00056956045, 0.580479
3.00400, 0.00053949568, 0.031964209, 3.48975e-05, 2.5769718, 0.00056956045, 0.580479
3.00500, 0.00053968712, 0.031786535, 3.46840e-05, 2.5764592, 0.00056956045, 0.580479
3.00600, 0.00053986533, 0.031524766, 3.44585e-05, 2.5772469, 0.00056956045, 0.580479
3.00700, 0.00054006364, 0.031270340, 3.42172e-05, 2.5776770, 0.00056956045, 0.580479
3.00800, 0.00054019094, 0.031132776, 3.40699e-05, 2.5775917, 0.00056956045, 0.580479
3.00900, 0.00054040277, 0.030822948, 3.38016e-05, 2.5785768, 0.00056956045, 0.580479
3.01000, 0.00054061230, 0.030683378, 3.35837e-05, 2.5772417, 0.00056956045, 0.580479
3.01100, 0.00054077817, 0.030547073, 3.34036e-05, 2.5765479, 0.00056956045, 0.580479
3.01200, 0.00054096139, 0.030270655, 3.31696e-05, 2.5775077, 0.00056956045, 0.580479
3.01300, 0.00054115330, 0.030130506, 3.29663e-05, 2.5764453, 0.00056956045, 0.580479
3.01400, 0.00054134653, 0.029955892, 3.27514e-05, 2.5758751, 0.00056956045, 0.580479
3.01500, 0.00054153940, 0.029706094, 3.25166e-05, 2.5763233, 0.00056956045, 0.580479
3.01600, 0.00054175235, 0.029504735, 3.22788e-05, 2.5757368, 0.00056956045, 0.580479
3.01700, 0.00054190166, 0.029255163, 3.20810e-05, 2.5769107, 0.00056956045, 0.580479
3.01800, 0.00054209393, 0.028991109, 3.18421e-05, 2.5776308, 0.00056956045, 0.580479
3.01900, 0.00054225209, 0.028801313, 3.16532e-05, 2.5778363, 0.00056956045, 0.580479
3.02000, 0.00054243349, 0.028518431, 3.14188e-05, 2.5790107, 0.00056956045, 0.580479
3.02100, 0.00054267713, 0.028205253, 3.11220e-05, 2.5796611, 0.00056956045, 0.580479
3.02200, 0.00054279057, 0.028126944, 3.10027e-05, 2.5789583, 0.00056956045, 0.580479
3.02300, 0.00054297257, 0.027807217, 3.07581e-05, 2.5806882, 0.00056956045, 0.580479
3.02400, 0.00054314709, 0.027628710, 3.05581e-05, 2.5804937, 0.00056956045, 0.580479
3.02500, 0.00054332046, 0.027511952, 3.03765e-05, 2.5793636, 0.00056956045, 0.580479
3.02600, 0.00054351895, 0.027305333, 3.01489e-05, 2.5791395, 0.00056956045, 0.580479
3.02700, 0.00054364818, 0.027119130, 2.99858e-05, 2.5798194, 0.00056956045, 0.580479
3.02800, 0.00054384332, 0.026980290, 2.97798e-05, 2.5786111, 0.00056956045, 0.580479
3.02900, 0.00054402498, 0.026802951, 2.95742e-05, 2.5782487, 0.00056956045, 0.580479
3.03000, 0.00054419733, 0.026642337, 2.93815e-05, 2.5777681, 0.00056956045, 0.580479
3.03100, 0.00054436219, 0.026482999, 2.91964e-05, 2.5773475, 0.00056956045, 0.580479
3.03200, 0.00054456722, 0.026179636, 2.89345e-05, 2.5786355, 0.00056956045, 0.580479
3.03300, 0.00054471310, 0.026127212, 2.87949e-05, 2.5768702, 0.00056956045, 0.580479
3.03400, 0.00054486990, 0.025872717, 2.85889e-05, 2.5781972, 0.00056956045, 0.580479
3.03500, 0.00054508821, 0.025576103, 2.83191e-05, 2.5790837, 0.00056956045, 0.580479
3.03600, 0.00054524321, 0.025403043, 2.81381e-05, 2.5790994, 0.00056956045, 0.580479
3.03700, 0.00054543241, 0.025155442, 2.79063e-05, 2.5797708, 0.00056956045, 0.580479
3.03800, 0.00054559978, 0.024934087, 2.77003e-05, 2.5804341, 0.00056956045, 0.580479
3.03900, 0.00054573812, 0.024756540, 2.75324e-05, 2.5808470, 0.00056956045, 0.580479
3.04000, 0.00054593134, 0.024470761, 2.72857e-05, 2.5821865, 0.00056956045, 0.580479
3.04100, 0.00054608781, 0.024343761, 2.71157e-05, 2.5814421, 0.00056956045, 0.580479
3.04200, 0.00054625418, 0.024181606, 2.69281e-05, 2.5810697, 0.00056956045, 0.580479
3.04300, 0.00054643597, 0.023893941, 2.66916e-05, 2.5826433, 0.00056956045, 0.580479
3.04400, 0.00054656199, 0.023926351, 2.65921e-05, 2.5796697, 0.00056956045, 0.580479
3.04500, 0.00054675753, 0.023675900, 2.63543e-05, 2.5803125, 0.00056956045, 0.580479
3.04600, 0.00054693415, 0.023552207, 2.61677e-05, 2.5790970, 0.00056956045, 0.580479
3.04700, 0.00054705299, 0.023432950, 2.60315e-05, 2.5789554, 0.00056956045, 0.580479
3.04800, 0.00054723827, 0.023172023, 2.57992e-05, 2.5800297, 0.00056956045, 0.580479
3.04900, 0.00054739445, 0.023045626, 2.56304e-05, 2.5791814, 0.00056956045, 0.580479
3.05000, 0.00054753486, 0.022895113, 2.54677e-05, 2.5791314, 0.00056956045, 0.580479
3.05100, 0.00054771586, 0.022588436, 2.52259e-05, 2.5812047, 0.00056956045, 0.580479
3.05200, 0.00054787317, 0.022378989, 2.50325e-05, 2.5819147, 0.00056956045, 0.580479
3.05300, 0.00054804297, 0.022221278, 2.48425e-05, 2.5814197, 0.00056956045, 0.580479
3.05400, 0.00054821111, 0.021956814, 2.46229e-05, 2.5830834, 0.00056956045, 0.580479
3.05500, 0.00054836924, 0.021719340, 2.44207e-05, 2.5843818, 0.00056956045, 0.580479
3.05600, 0.00054855263, 0.021573389, 2.42232e-05, 2.5833156, 0.00056956045, 0.580479
3.05700, 0.00054870209, 0.021351198, 2.40326e-05, 2.5845320, 0.00056956045, 0.580479
3.05800, 0.00054883220, 0.021278486, 2.38998e-05, 2.5832460, 0.00056956045, 0.580479
3.05900, 0.00054900189, 0.020996479, 2.36744e-05, 2.5852993, 0.00056956045, 0.580479
3.06000, 0.00054916623, 0.020851187, 2.34926e-05, 2.5846737, 0.00056956045, 0.580479
3.06100, 0.00054928776, 0.020822581, 2.33802e-05, 2.5826004, 0.00056956045, 0.580479
3.06200, 0.00054946722, 0.020583605, 2.31579e-05, 2.5836346, 0.00056956045, 0.580479
3.06300, 0.00054963373, 0.020376956, 2.29581e-05, 2.5841358, 0.00056956045, 0.580479
3.06400, 0.00054980007, 0.020253720, 2.27795e-05, 2.5830734, 0.00056956045, 0.580479
3.06500, 0.00054996075, 0.020111956, 2.26021e-05, 2.5824020, 0.00056956045, 0.580479
3.06600, 0.00055008716, 0.019903405, 2.24346e-05, 2.5839870, 0.00056956045, 0.580479
3.06700, 0.00055030112, 0.019686593, 2.21902e-05, 2.5837157, 0.00056956045, 0.580479
3.06800, 0.00055046669, 0.019470427, 2.19876e-05, 2.5845516, 0.00056956045, 0.580479
3.06900, 0.00055058260, 0.019326001, 2.18466e-05, 2.5850818, 0.00056956045, 0.580479
3.07000, 0.00055076467, 0.019080780, 2.16217e-05, 2.5862048, 0.00056956045, 0.580479
3.07100, 0.00055094848, 0.018781658, 2.13800e-05, 2.5885518, 0.00056956045, 0.580479
3.07200, 0.00055108271, 0.018730808, 2.12486e-05, 2.5866306, 0.00056956045, 0.580479
3.07300, 0.00055127226, 0.018461555, 2.10118e-05, 2.5880811, 0.00056956045, 0.580479
3.07400, 0.00055143346, 0.018318940, 2.08327e-05, 2.5874922, 0.00056956045, 0.580479
3.07500, 0.00055157836, 0.018168643, 2.06658e-05, 2.5874498, 0.00056956045, 0.580479
3.07600, 0.00055173811, 0.018040238, 2.04911e-05, 2.5866196, 0.00056956045, 0.580479
3.07700, 0.00055185934, 0.017950803, 2.03630e-05, 2.5856025, 0.00056956045, 0.580479
3.07800, 0.00055206489, 0.017777294, 2.01365e-05, 2.5846474, 0.00056956045, 0.580479
3.07900, 0.00055223610, 0.017605457, 1.99408e-05, 2.5844433, 0.00056956045, 0.580479
3.08000, 0.00055237224, 0.017517207, 1.97982e-05, 2.5831516, 0.00056956045, 0.580479
3.08100, 0.00055251814, 0.017370271, 1.96323e-05, 2.5828884, 0.00056956045, 0.580479
3.08200, 0.00055270956, 0.017149244, 1.94051e-05, 2.5833829, 0.00056956045, 0.580479
3.08300, 0.00055284754, 0.017083075, 1.92662e-05, 2.5815332, 0.00056956045, 0.580479
3.08400, 0.00055304158, 0.016769655, 1.90118e-05, 2.5842040, 0.00056956045, 0.580479
3.08500, 0.00055321739, 0.016619695, 1.88174e-05, 2.5833886, 0.00056956045, 0.580479
3.08600, 0.00055331224, 0.016446641, 1.86889e-05, 2.5851171, 0.00056956045, 0.580479
3.08700, 0.00055348852, 0.016165162, 1.84582e-05, 2.5876472, 0.00056956045, 0.580479
3.08800, 0.00055366446, 0.015983459, 1.82547e-05, 2.5876958, 0.00056956045, 0.580479
3.08900, 0.00055380028, 0.015810980, 1.80897e-05, 2.5884960, 0.00056956045, 0.580479
3.09000, 0.00055398595, 0.015663261, 1.78884e-05, 2.5872529, 0.00056956045, 0.580479
3.09100, 0.00055411285, 0.015498759, 1.77324e-05, 2.5881946, 0.00056956045, 0.580479
3.09200, 0.00055428036, 0.015359682, 1.75497e-05, 2.5871594, 0.00056956045, 0.580479
3.09300, 0.00055441894, 0.015176191, 1.73779e-05, 2.5883558, 0.00056956045, 0.580479
3.09400, 0.00055459605, 0.015109273, 1.72070e-05, 2.5849950, 0.00056956045, 0.580479
3.09500, 0.00055474205, 0.014926697, 1.70301e-05, 2.5858386, 0.00056956045, 0.580479
3.09600, 0.00055494819, 0.014762064, 1.68054e-05, 2.5844762, 0.00056956045, 0.580479
3.09700, 0.00055507149, 0.014758026, 1.66973e-05, 2.5809310, 0.00056956045, 0.580479
3.09800, 0.00055522481, 0.014538287, 1.65033e-05, 2.5826562, 0.00056956045, 0.580479
3.09900, 0.00055541947, 0.014373352, 1.62898e-05, 2.5814378, 0.00056956045, 0.580479
3.10000, 0.00055556937, 0.014240029, 1.61208e-05, 2.5809691, 0.00056956045, 0.580479
3.10100, 0.00055574688, 0.013990885, 1.58980e-05, 2.5828579, 0.00056956045, 0.580479
3.10200, 0.00055586218, 0.013806473, 1.57478e-05, 2.5847223, 0.00056956045, 0.580479
3.10300, 0.00055603373, 0.013571337, 1.55336e-05, 2.5865362, 0.00056956045, 0.580479
3.10400, 0.00055619223, 0.013381144, 1.53450e-05, 2.5872047, 0.00056956045, 0.580479
3.10500, 0.00055632425, 0.013192728, 1.51779e-05, 2.5889328, 0.00056956045, 0.580479
3.10600, 0.00055652625, 0.013010749, 1.49529e-05, 2.5880535, 0.00056956045, 0.580479
3.10700, 0.00055668504, 0.012746939, 1.47406e-05, 2.5915692, 0.00056956045, 0.580479
3.10800, 0.00055680860, 0.012756288, 1.46352e-05, 2.5871704, 0.00056956045, 0.580479
3.10900, 0.00055695434, 0.012525233, 1.44444e-05, 2.5899551, 0.00056956045, 0.580479
3.11000, 0.00055712668, 0.012343071, 1.42457e-05, 2.5900214, 0.00056956045, 0.580479
3.11100, 0.00055724892, 0.012265562, 1.41183e-05, 2.5883825, 0.00056956045, 0.580479
3.11200, 0.00055739658, 0.012030038, 1.39249e-05, 2.5913546, 0.00056956045, 0.580479
3.11300, 0.00055756578, 0.011930532, 1.37515e-05, 2.5886653, 0.00056956045, 0.580479
3.11400, 0.00055770417, 0.011784754, 1.35899e-05, 2.5889762, 0.00056956045, 0.580479
3.11500, 0.00055788721, 0.011601241, 1.33795e-05, 2.5889633, 0.00056956045, 0.580479
3.11600, 0.00055802515, 0.011472074, 1.32243e-05, 2.5885093, 0.00056956045, 0.580479
3.11700, 0.00055818555, 0.011241138, 1.30223e-05, 2.5908835, 0.00056956045, 0.580479
3.11800, 0.00055837394, 0.011021593, 1.27966e-05, 2.5921791, 0.00056956045, 0.580479
3.11900, 0.00055848573, 0.010896496, 1.26649e-05, 2.5926607, 0.00056956045, 0.580479
3.12000, 0.00055866093, 0.010681028, 1.24541e-05, 2.5940688, 0.00056956045, 0.580479
3.12100, 0.00055884150, 0.010421163, 1.22245e-05, 2.5973938, 0.00056956045, 0.580479
3.12200, 0.00055897506, 0.010306135, 1.20788e-05, 2.5963423, 0.00056956045, 0.580479
3.12300, 0.00055913524, 0.010089876, 1.18769e-05, 2.5991657, 0.00056956045, 0.580479
3.12400, 0.00055928768, 0.010006829, 1.17230e-05, 2.5960476, 0.00056956045, 0.580479
3.12500, 0.00055939674, 0.0098507432, 1.15846e-05, 2.5981624, 0.00056956045, 0.580479
3.12600, 0.00055955540, 0.0096428199, 1.13899e-05, 2.6002901, 0.00056956045, 0.580479
3.12700, 0.00055969884, 0.0095808068, 1.12486e-05, 2.5966795, 0.00056956045, 0.580479
3.12800, 0.00055984868, 0.0093986560, 1.10669e-05, 2.5983651, 0.00056956045, 0.580479
3.12900, 0.00056001449, 0.0092516420, 1.08817e-05, 2.5976617, 0.00056956045, 0.580479
3.13000, 0.00056016408, 0.0091544911, 1.07262e-05, 2.5950639, 0.00056956045, 0.580479
3.13100, 0.00056029172, 0.0090233311, 1.05781e-05, 2.5954087, 0.00056956045, 0.580479
3.13200, 0.00056048385, 0.0087958695, 1.03467e-05, 2.5974281, 0.00056956045, 0.580479
3.13300, 0.00056060189, 0.0087414896, 1.02295e-05, 2.5943105, 0.00056956045, 0.580479
3.13400, 0.00056073426, 0.0084994864, 1.00503e-05, 2.5992811, 0.00056956045, 0.580479
3.13500, 0.00056091522, 0.0083509181, 9.85069e-06, 2.5980060, 0.00056956045, 0.580479
3.13600, 0.00056103155, 0.0082214382, 9.71319e-06, 2.5988748, 0.00056956045, 0.580479
3.13700, 0.00056122404, 0.0079336520, 9.46683e-06, 2.6040180, 0.00056956045, 0.580479
3.13800, 0.00056134628, 0.0077972459, 9.32077e-06, 2.6053927, 0.00056956045, 0.580479
3.13900, 0.00056149990, 0.0076428289, 9.14759e-06, 2.6050899, 0.00056956045, 0.580479
3.14000, 0.00056166613, 0.0074212495, 8.94048e-06, 2.6088379, 0.00056956045, 0.580479
3.14100, 0.00056178165, 0.0073567154, 8.82064e-06, 2.6064661, 0.00056956045, 0.580479
3.14200, 0.00056194399, 0.0072588385, 8.65203e-06, 2.6030834, 0.00056956045, 0.580479
3.14300, 0.00056207927, 0.0071094972, 8.49410e-06, 2.6039426, 0.00056956045, 0.580479
3.14400, 0.00056221176, 0.0069911378, 8.34650e-06, 2.6032555, 0.00056956045, 0.580479
3.14500, 0.00056233999, 0.0068880683, 8.20597e-06, 2.6020486, 0.00056956045, 0.580479
3.14600, 0.00056250852, 0.0067746402, 8.02723e-06, 2.5990484, 0.00056956045, 0.580479
3.14700, 0.00056264555, 0.0067481939, 7.89861e-06, 2.5926988, 0.00056956045, 0.580479
3.14800, 0.00056280252, 0.0064961710, 7.69322e-06, 2.5987527, 0.00056956045, 0.580479
3.14900, 0.00056294291, 0.0064223483, 7.55171e-06, 2.5942805, 0.00056956045, 0.580479
3.15000, 0.00056307090, 0.0063288589, 7.41388e-06, 2.5922182, 0.00056956045, 0.580479
3.15100, 0.00056322801, 0.0061084060, 7.21627e-06, 2.5966737, 0.00056956045, 0.580479
3.15200, 0.00056336286, 0.0058593834, 7.03339e-06, 2.6042059, 0.00056956045, 0.580479
3.15300, 0.00056350006, 0.0057256129, 6.87583e-06, 2.6046426, 0.00056956045, 0.580479
3.15400, 0.00056366356, 0.0055350577, 6.68125e-06, 2.6070893, 0.00056956045, 0.580479
3.15500, 0.00056377747, 0.0054700645, 6.55909e-06, 2.6050766, 0.00056956045, 0.580479
3.15600, 0.00056391756, 0.0052248435, 6.37242e-06, 2.6131685, 0.00056956045, 0.580479
3.15700, 0.00056406667, 0.0050743730, 6.20094e-06, 2.6140449, 0.00056956045, 0.580479
3.15800, 0.00056415509, 0.0050743730, 6.12620e-06, 2.6062915, 0.00056956045, 0.580479
3.15900, 0.00056433602, 0.0048460579, 5.90223e-06, 2.6122153, 0.00056956045, 0.580479
3.16000, 0.00056447288, 0.0047841640, 5.76238e-06, 2.6073272, 0.00056956045, 0.580479
3.16100, 0.00056457142, 0.0046961429, 5.65553e-06, 2.6057088, 0.00056956045, 0.580479
3.16200, 0.00056471382, 0.0045934827, 5.50464e-06, 2.6020901, 0.00056956045, 0.580479
3.16300, 0.00056486162, 0.0045017344, 5.34925e-06, 2.5977271, 0.00056956045, 0.580479
3.16400, 0.00056498183, 0.0043945350, 5.21134e-06, 2.5980432, 0.00056956045, 0.580479
3.16500, 0.00056514510, 0.0043123867, 5.04850e-06, 2.5896909, 0.00056956045, 0.580479
3.16600, 0.00056526158, 0.0041287956, 4.89129e-06, 2.5985200, 0.00056956045, 0.580479
3.16700, 0.00056538357, 0.0040264730, 4.75941e-06, 2.5958021, 0.00056956045, 0.580479
3.16800, 0.00056554668, 0.0037979390, 4.55564e-06, 2.6029375, 0.00056956045, 0.580479
3.16900, 0.00056564211, 0.0037025779, 4.44603e-06, 2.6034324, 0.00056956045, 0.580479
3.17000, 0.00056578092, 0.0035881216, 4.29272e-06, 2.6015570, 0.00056956045, 0.580479
3.17100, 0.00056596444, 0.0033116860, 4.05835e-06, 2.6134193, 0.00056956045, 0.580479
3.17200, 0.00056605329, 0.0032754918, 3.97226e-06, 2.6066253, 0.00056956045, 0.580479
3.17300, 0.00056620101, 0.0030688012, 3.78307e-06, 2.6175020, 0.00056956045, 0.580479
3.17400, 0.00056628718, 0.0029901010, 3.69103e-06, 2.6148651, 0.00056956045, 0.580479
3.17500, 0.00056640588, 0.0029296887, 3.56273e-06, 2.6118391, 0.00056956045, 0.580479
3.17600, 0.00056654976, 0.0027186358, 3.38938e-06, 2.6178939, 0.00056956045, 0.580479
3.17700, 0.00056666284, 0.0027621367, 3.29147e-06, 2.6009014, 0.00056956045, 0.580479
3.17800, 0.00056680877, 0.0026966222, 3.14518e-06, 2.5894964, 0.00056956045, 0.580479
3.17900, 0.00056693378, 0.0025837421, 3.00856e-06, 2.5856946, 0.00056956045, 0.580479
3.18000, 0.00056704455, 0.0024657000, 2.87986e-06, 2.5867727, 0.00056956045, 0.580479
3.18100, 0.00056719201, 0.0023417152, 2.71982e-06, 2.5809739, 0.00056956045, 0.580479
3.18200, 0.00056734013, 0.0022107877, 2.55105e-06, 2.5799844, 0.00056956045, 0.580479
3.18300, 0.00056746321, 0.0021561920, 2.42771e-06, 2.5669396, 0.00056956045, 0.580479
3.18400, 0.00056758517, 0.0019223655, 2.25558e-06, 2.5908597, 0.00056956045, 0.580479
3.18500, 0.00056774238, 0.0017605233, 2.08485e-06, 2.5831978, 0.00056956045, 0.580479
3.18600, 0.00056784535, 0.0017263351, 1.97926e-06, 2.5720379, 0.00056956045, 0.580479
3.18700, 0.00056799695, 0.0015440810, 1.78452e-06, 2.5915172, 0.00056956045, 0.580479
3.18800, 0.00056812948, 0.0013372133, 1.61956e-06, 2.6070173, 0.00056956045, 0.580479
3.18900, 0.00056823991, 0.0012448779, 1.49614e-06, 2.6049922, 0.00056956045, 0.580479
3.19000, 0.00056837501, 0.0010918301, 1.34476e-06, 2.6025975, 0.00056956045, 0.580479
3.19100, 0.00056844684, 0.0010918301, 1.26113e-06, 2.6057341, 0.00056956045, 0.580479
3.19200, 0.00056859817, 0.00091349060, 1.08721e-06, 2.6100824, 0.00056956045, 0.580479
3.19300, 0.00056872694, 0.00077204045, 9.35996e-07, 2.6217711, 0.00056956045, 0.580479
3.19400, 0.00056879124, 0.00077204045, 8.82340e-07, 2.5821540, 0.00056956045, 0.580479
3.19500, 0.00056893230, 0.00059801998, 7.07749e-07, 2.6152017, 0.00056956045, 0.580479
3.19600, 0.00056906155, 0.00048828125, 5.68429e-07, 2.5941694, 0.00056956045, 0.580479
3.19700, 0.00056916978, 0.00048828125, 4.61636e-07, 2.5320976, 0.00056956045, 0.580479
3.19800, 0.00056930824, 0.00048828125, 3.11713e-07, 2.4657505, 0.00056956045, 0.580479
3.19900, 0.00056945297, 0.0000000, 1.51547e-07, 2.3114417, 0.00056956045, 0.580479
3.20000, 0.00056956045, -0.0000000, 0.00000, -2.1991150, 0.00056956045, 0.580479
3.20100, 0.00056968378, -0.0000000, 1.67429e-07, -0.79062294, 0.00056956045, 0.580479
3.20200, 0.00056985141, -0.0000000, 3.07279e-07, -0.37524154, 0.00056956045, 0.580479
3.20300, 0.00057004924, -0.00048828125, 5.21598e-07, -0.40451824, 0.00056956045, 0.580479
3.20400, 0.00057036163, -0.00048828125, 8.46947e-07, -0.37830404, 0.00056956045, 0.580479
3.20500, 0.00057059848, -0.00048828125, 1.06696e-06, -0.28143864, 0.00056956045, 0.580479
3.20600, 0.00057088871, -0.0000000, 1.33372e-06, -0.13845514, 0.00056956045, 0.580479
3.20700, 0.00057126645, -0.0000000, 1.70606e-06, -0.056136839, 0.00056956045, 0.580479
3.20800, 0.00057159282, 0.00048828125, 2.04525e-06, 0.064611661, 0.00056956045, 0.580479
3.20900, 0.00057207756, 0.00077204045, 2.54973e-06, 0.11263896, 0.00056956045, 0.580479
3.21000, 0.00057256387, 0.0010918301, 3.06899e-06, 0.15979526, 0.00056956045, 0.580479
3.21100, 0.00057299860, 0.0015440810, 3.54961e-06, 0.20418786, 0.00056956045, 0.580479
3.21200, 0.00057351503, 0.0018593199, 4.09736e-06, 0.21786136, 0.00056956045, 0.580479
3.21300, 0.00057398961, 0.0024897563, 4.65374e-06, 0.26534456, 0.00056956045, 0.580479
3.21400, 0.00057454722, 0.0030881630, 5.29077e-06, 0.29434436, 0.00056956045, 0.580479
3.21500, 0.00057513980, 0.0037186414, 5.97198e-06, 0.31865716, 0.00056956045, 0.580479
3.21600, 0.00057570676, 0.0045543881, 6.67575e-06, 0.35538456, 0.00056956045, 0.580479
3.21700, 0.00057633168, 0.0053932494, 7.44344e-06, 0.38312126, 0.00056956045, 0.580479
3.21800, 0.00057700572, 0.0063005416, 8.27516e-06, 0.40700556, 0.00056956045, 0.580479
3.21900, 0.00057762200, 0.0072588385, 9.07507e-06, 0.43293236, 0.00056956045, 0.580479
3.22000, 0.00057826515, 0.0082576089, 9.91233e-06, 0.45508266, 0.00056956045, 0.580479
3.22100, 0.00057894248, 0.0092193726, 1.07734e-05, 0.47065496, 0.00056956045, 0.580479
3.22200, 0.00057956321, 0.010335012, 1.16335e-05, 0.49322266, 0.00056956045, 0.580479
3.22300, 0.00058018663, 0.011257034, 1.24421e-05, 0.50488966, 0.00056956045, 0.580479
3.22400, 0.00058080099, 0.012304378, 1.32814e-05, 0.52006626, 0.00056956045, 0.580479
3.22500, 0.00058140789, 0.013478788, 1.41608e-05, 0.53861736, 0.00056956045, 0.580479
3.22600, 0.00058205540, 0.014571050, 1.50511e-05, 0.55087256, 0.00056956045, 0.580479
3.22700, 0.00058263221, 0.015651841, 1.58787e-05, 0.56375526, 0.00056956045, 0.580479
3.22800, 0.00058328066, 0.016875952, 1.68185e-05, 0.57736656, 0.00056956045, 0.580479
3.22900, 0.00058389601, 0.017887602, 1.76616e-05, 0.58493416, 0.00056956045, 0.580479
3.23000, 0.00058448899, 0.019115115, 1.85618e-05, 0.59814636, 0.00056956045, 0.580479
3.23100, 0.00058513015, 0.020117883, 1.94233e-05, 0.60311676, 0.00056956045, 0.580479
