time(s), Phieff(Wb), Thetaeff(rad), Phipl(Wb), DelTheta(rad), Phiext(Wb), Thetaext(rad)
3.00000, 0.00055333859, 0.018066652, 1.91305e-05, 2.5440433, 0.00056956045, 0.580479
3.00100, 0.00055349462, 0.017920893, 1.89565e-05, 2.5431297, 0.00056956045, 0.580479
3.00200, 0.00055356188, 0.017904256, 1.88951e-05, 2.5416057, 0.00056956045, 0.580479
3.00300, 0.00055367824, 0.017753806, 1.87527e-05, 2.5419548, 0.00056956045, 0.580479
3.00400, 0.00055379746, 0.017710106, 1.86389e-05, 2.5396326, 0.00056956045, 0.580479
3.00500, 0.00055387150, 0.017615613, 1.85486e-05, 2.5398219, 0.00056956045, 0.580479
3.00600, 0.00055399807, 0.017455850, 1.83943e-05, 2.5401442, 0.00056956045, 0.580479
3.00700, 0.00055409714, 0.017342797, 1.82771e-05, 2.5400980, 0.00056956045, 0.580479
3.00800, 0.00055418613, 0.017291164, 1.81863e-05, 2.5388172, 0.00056956045, 0.580479
3.00900, 0.00055428789, 0.017055137, 1.80289e-05, 2.5419581, 0.00056956045, 0.580479
3.01000, 0.00055438317, 0.016967539, 1.79227e-05, 2.5413573, 0.00056956045, 0.580479
3.01100, 0.00055448615, 0.016787417, 1.77835e-05, 2.5428474, 0.00056956045, 0.580479
3.01200, 0.00055460442, 0.016676981, 1.76496e-05, 2.5422814, 0.00056956045, 0.580479
3.01300, 0.00055469374, 0.016547808, 1.75363e-05, 2.5429370, 0.00056956045, 0.580479
3.01400, 0.00055480227, 0.016352138, 1.73860e-05, 2.5448921, 0.00056956045, 0.580479
3.01500, 0.00055493880, 0.016286392, 1.72513e-05, 2.5424316, 0.00056956045, 0.580479
3.01600, 0.00055499131, 0.016257085, 1.71982e-05, 2.5415948, 0.00056956045, 0.580479
3.01700, 0.00055509644, 0.016143022, 1.70761e-05, 2.5413530, 0.00056956045, 0.580479
3.01800, 0.00055525406, 0.015983459, 1.68961e-05, 2.5407016, 0.00056956045, 0.580479
3.01900, 0.00055526085, 0.016002094, 1.68957e-05, 2.5399931, 0.00056956045, 0.580479
3.02000, 0.00055536415, 0.015773235, 1.67410e-05, 2.5429876, 0.00056956045, 0.580479
3.02100, 0.00055550823, 0.015754329, 1.66134e-05, 2.5389164, 0.00056956045, 0.580479
3.02200, 0.00055552588, 0.015598432, 1.65529e-05, 2.5426481, 0.00056956045, 0.580479
3.02300, 0.00055570255, 0.015479517, 1.63671e-05, 2.5403860, 0.00056956045, 0.580479
3.02400, 0.00055577847, 0.015440962, 1.62927e-05, 2.5388806, 0.00056956045, 0.580479
3.02500, 0.00055584934, 0.015160472, 1.61489e-05, 2.5446632, 0.00056956045, 0.580479
3.02600, 0.00055597502, 0.015065815, 1.60142e-05, 2.5432804, 0.00056956045, 0.580479
3.02700, 0.00055606332, 0.014890715, 1.58870e-05, 2.5455277, 0.00056956045, 0.580479
3.02800, 0.00055617444, 0.014729726, 1.57454e-05, 2.5465543, 0.00056956045, 0.580479
3.02900, 0.00055626349, 0.014611901, 1.56341e-05, 2.5471723, 0.00056956045, 0.580479
3.03000, 0.00055636812, 0.014464299, 1.55019e-05, 2.5480578, 0.00056956045, 0.580479
3.03100, 0.00055644538, 0.014298511, 1.53886e-05, 2.5503528, 0.00056956045, 0.580479
3.03200, 0.00055661906, 0.014189710, 1.52099e-05, 2.5476186, 0.00056956045, 0.580479
3.03300, 0.00055662251, 0.014143427, 1.51918e-05, 2.5490921, 0.00056956045, 0.580479
3.03400, 0.00055676515, 0.014033424, 1.50381e-05, 2.5475495, 0.00056956045, 0.580479
3.03500, 0.00055688774, 0.013952488, 1.49109e-05, 2.5456803, 0.00056956045, 0.580479
3.03600, 0.00055695181, 0.013858183, 1.48283e-05, 2.5464175, 0.00056956045, 0.580479
3.03700, 0.00055705047, 0.013797835, 1.47273e-05, 2.5447428, 0.00056956045, 0.580479
3.03800, 0.00055713738, 0.013719855, 1.46310e-05, 2.5440433, 0.00056956045, 0.580479
3.03900, 0.00055723286, 0.013584507, 1.45105e-05, 2.5448692, 0.00056956045, 0.580479
3.04000, 0.00055734050, 0.013536154, 1.44046e-05, 2.5425241, 0.00056956045, 0.580479
3.04100, 0.00055739705, 0.013425616, 1.43244e-05, 2.5439866, 0.00056956045, 0.580479
3.04200, 0.00055750523, 0.013260327, 1.41821e-05, 2.5455930, 0.00056956045, 0.580479
3.04300, 0.00055761929, 0.013019908, 1.40161e-05, 2.5491512, 0.00056956045, 0.580479
3.04400, 0.00055766730, 0.012946451, 1.39535e-05, 2.5498436, 0.00056956045, 0.580479
3.04500, 0.00055780118, 0.012760960, 1.37845e-05, 2.5511620, 0.00056956045, 0.580479
3.04600, 0.00055790261, 0.012718852, 1.36858e-05, 2.5487330, 0.00056956045, 0.580479
3.04700, 0.00055801746, 0.012549005, 1.35381e-05, 2.5501959, 0.00056956045, 0.580479
3.04800, 0.00055812658, 0.012415296, 1.34056e-05, 2.5506795, 0.00056956045, 0.580479
3.04900, 0.00055819255, 0.012463215, 1.33647e-05, 2.5462654, 0.00056956045, 0.580479
3.05000, 0.00055826197, 0.012197337, 1.32277e-05, 2.5529449, 0.00056956045, 0.580479
3.05100, 0.00055839294, 0.012246108, 1.31302e-05, 2.5460241, 0.00056956045, 0.580479
3.05200, 0.00055845770, 0.012167981, 1.30516e-05, 2.5462892, 0.00056956045, 0.580479
3.05300, 0.00055854530, 0.012039944, 1.29388e-05, 2.5474541, 0.00056956045, 0.580479
3.05400, 0.00055863615, 0.011940519, 1.28337e-05, 2.5472028, 0.00056956045, 0.580479
3.05500, 0.00055870851, 0.011865404, 1.27507e-05, 2.5469120, 0.00056956045, 0.580479
3.05600, 0.00055878362, 0.011734067, 1.26479e-05, 2.5487139, 0.00056956045, 0.580479
3.05700, 0.00055890867, 0.011652507, 1.25158e-05, 2.5467651, 0.00056956045, 0.580479
3.05800, 0.00055894437, 0.011513566, 1.24479e-05, 2.5500915, 0.00056956045, 0.580479
3.05900, 0.00055906160, 0.011378167, 1.23075e-05, 2.5504134, 0.00056956045, 0.580479
3.06000, 0.00055917750, 0.011336180, 1.21953e-05, 2.5472262, 0.00056956045, 0.580479
3.06100, 0.00055918286, 0.011118512, 1.21263e-05, 2.5555685, 0.00056956045, 0.580479
3.06200, 0.00055935311, 0.011005356, 1.19489e-05, 2.5525391, 0.00056956045, 0.580479
3.06300, 0.00055945709, 0.010967378, 1.18509e-05, 2.5492427, 0.00056956045, 0.580479
3.06400, 0.00055953946, 0.010808619, 1.17317e-05, 2.5523074, 0.00056956045, 0.580479
3.06500, 0.00055963110, 0.010725580, 1.16294e-05, 2.5515635, 0.00056956045, 0.580479
3.06600, 0.00055972219, 0.010653090, 1.15309e-05, 2.5503652, 0.00056956045, 0.580479
3.06700, 0.00055976962, 0.010585735, 1.14723e-05, 2.5507639, 0.00056956045, 0.580479
3.06800, 0.00055992090, 0.010449722, 1.13035e-05, 2.5494707, 0.00056956045, 0.580479
3.06900, 0.00055995953, 0.010438308, 1.12669e-05, 2.5482051, 0.00056956045, 0.580479
3.07000, 0.00056006234, 0.010329243, 1.11452e-05, 2.5483015, 0.00056956045, 0.580479
3.07100, 0.00056016907, 0.010317695, 1.10516e-05, 2.5436509, 0.00056956045, 0.580479
3.07200, 0.00056024324, 0.010230673, 1.09644e-05, 2.5435979, 0.00056956045, 0.580479
3.07300, 0.00056030897, 0.010048439, 1.08539e-05, 2.5484493, 0.00056956045, 0.580479
3.07400, 0.00056040569, 0.0099590635, 1.07464e-05, 2.5475013, 0.00056956045, 0.580479
3.07500, 0.00056048331, 0.0098446906, 1.06459e-05, 2.5488789, 0.00056956045, 0.580479
3.07600, 0.00056062255, 0.0097044362, 1.04851e-05, 2.5484188, 0.00056956045, 0.580479
3.07700, 0.00056065040, 0.0095621245, 1.04201e-05, 2.5534279, 0.00056956045, 0.580479
3.07800, 0.00056073219, 0.0093859639, 1.03002e-05, 2.5572374, 0.00056956045, 0.580479
3.07900, 0.00056090414, 0.0093414048, 1.01408e-05, 2.5504925, 0.00056956045, 0.580479
3.08000, 0.00056094651, 0.0092387479, 1.00738e-05, 2.5532715, 0.00056956045, 0.580479
3.08100, 0.00056103148, 0.0090760225, 9.95331e-06, 2.5566986, 0.00056956045, 0.580479
3.08200, 0.00056116899, 0.0090562990, 9.83151e-06, 2.5501874, 0.00056956045, 0.580479
3.08300, 0.00056122942, 0.0089836093, 9.75531e-06, 2.5510528, 0.00056956045, 0.580479
3.08400, 0.00056130968, 0.0088700987, 9.65617e-06, 2.5518777, 0.00056956045, 0.580479
3.08500, 0.00056137818, 0.0087619219, 9.56366e-06, 2.5539472, 0.00056956045, 0.580479
3.08600, 0.00056146209, 0.0086178798, 9.45170e-06, 2.5563104, 0.00056956045, 0.580479
3.08700, 0.00056159501, 0.0086386036, 9.34576e-06, 2.5476396, 0.00056956045, 0.580479
3.08800, 0.00056164669, 0.0084994864, 9.25867e-06, 2.5522392, 0.00056956045, 0.580479
3.08900, 0.00056168962, 0.0083936350, 9.19166e-06, 2.5552037, 0.00056956045, 0.580479
3.09000, 0.00056184946, 0.0082576089, 9.01600e-06, 2.5531156, 0.00056956045, 0.580479
3.09100, 0.00056189175, 0.0082069254, 8.96405e-06, 2.5535500, 0.00056956045, 0.580479
3.09200, 0.00056196591, 0.0080751367, 8.86441e-06, 2.5559084, 0.00056956045, 0.580479
3.09300, 0.00056207516, 0.0078808861, 8.71409e-06, 2.5601723, 0.00056956045, 0.580479
3.09400, 0.00056210660, 0.0077972459, 8.65937e-06, 2.5636475, 0.00056956045, 0.580479
3.09500, 0.00056226906, 0.0077204234, 8.49772e-06, 2.5582421, 0.00056956045, 0.580479
3.09600, 0.00056236066, 0.0076193968, 8.38962e-06, 2.5584591, 0.00056956045, 0.580479
3.09700, 0.00056239768, 0.0074613001, 8.31395e-06, 2.5649612, 0.00056956045, 0.580479
3.09800, 0.00056249816, 0.0073323688, 8.19009e-06, 2.5663955, 0.00056956045, 0.580479
3.09900, 0.00056260261, 0.0073648132, 8.11332e-06, 2.5571807, 0.00056956045, 0.580479
3.10000, 0.00056264791, 0.0072506224, 8.03794e-06, 2.5618169, 0.00056956045, 0.580479
3.10100, 0.00056276566, 0.0071094972, 7.89872e-06, 2.5622418, 0.00056956045, 0.580479
3.10200, 0.00056285696, 0.0070843012, 7.81139e-06, 2.5581772, 0.00056956045, 0.580479
3.10300, 0.00056294806, 0.0071094972, 7.74064e-06, 2.5505931, 0.00056956045, 0.580479
3.10400, 0.00056304039, 0.0069911378, 7.62602e-06, 2.5519421, 0.00056956045, 0.580479
3.10500, 0.00056308665, 0.0068707396, 7.55304e-06, 2.5560176, 0.00056956045, 0.580479
3.10600, 0.00056317562, 0.0068184896, 7.46242e-06, 2.5530617, 0.00056956045, 0.580479
3.10700, 0.00056332300, 0.0067481939, 7.31590e-06, 2.5472400, 0.00056956045, 0.580479
3.10800, 0.00056331415, 0.0066143759, 7.28164e-06, 2.5572527, 0.00056956045, 0.580479
3.10900, 0.00056341318, 0.0064223483, 7.14278e-06, 2.5626562, 0.00056956045, 0.580479
3.11000, 0.00056350307, 0.0063570500, 7.04617e-06, 2.5607474, 0.00056956045, 0.580479
3.11100, 0.00056357698, 0.0062339678, 6.94735e-06, 2.5638063, 0.00056956045, 0.580479
3.11200, 0.00056367821, 0.0061084060, 6.82518e-06, 2.5648954, 0.00056956045, 0.580479
3.11300, 0.00056373716, 0.0060298378, 6.75209e-06, 2.5660384, 0.00056956045, 0.580479
3.11400, 0.00056386208, 0.0059502320, 6.61805e-06, 2.5632184, 0.00056956045, 0.580479
3.11500, 0.00056396776, 0.0059301639, 6.52279e-06, 2.5561221, 0.00056956045, 0.580479
3.11600, 0.00056399728, 0.0058796932, 6.48698e-06, 2.5564563, 0.00056956045, 0.580479
3.11700, 0.00056408681, 0.0056942967, 6.35624e-06, 2.5633161, 0.00056956045, 0.580479
3.11800, 0.00056419857, 0.0057256129, 6.27048e-06, 2.5515578, 0.00056956045, 0.580479
3.11900, 0.00056424502, 0.0056942967, 6.21903e-06, 2.5507753, 0.00056956045, 0.580479
3.12000, 0.00056431632, 0.0055779661, 6.12216e-06, 2.5543425, 0.00056956045, 0.580479
3.12100, 0.00056438941, 0.0055242786, 6.04635e-06, 2.5517132, 0.00056956045, 0.580479
3.12200, 0.00056449763, 0.0054700645, 5.93577e-06, 2.5472610, 0.00056956045, 0.580479
3.12300, 0.00056455498, 0.0053711003, 5.86013e-06, 2.5495637, 0.00056956045, 0.580479
3.12400, 0.00056461343, 0.0052815755, 5.78452e-06, 2.5515630, 0.00056956045, 0.580479
3.12500, 0.00056465145, 0.0051559415, 5.71287e-06, 2.5594032, 0.00056956045, 0.580479
3.12600, 0.00056480391, 0.0050978116, 5.56797e-06, 2.5496438, 0.00056956045, 0.580479
3.12700, 0.00056485040, 0.0050743730, 5.51818e-06, 2.5482500, 0.00056956045, 0.580479
3.12800, 0.00056487930, 0.0048583420, 5.43048e-06, 2.5646069, 0.00056956045, 0.580479
3.12900, 0.00056503701, 0.0047591813, 5.26748e-06, 2.5581505, 0.00056956045, 0.580479
3.13000, 0.00056507152, 0.0046834336, 5.21524e-06, 2.5619972, 0.00056956045, 0.580479
3.13100, 0.00056514571, 0.0045674569, 5.11913e-06, 2.5652263, 0.00056956045, 0.580479
3.13200, 0.00056519935, 0.0045543881, 5.06820e-06, 2.5614441, 0.00056956045, 0.580479
3.13300, 0.00056528956, 0.0044215783, 4.95358e-06, 2.5647237, 0.00056956045, 0.580479
3.13400, 0.00056537385, 0.0043809502, 4.86662e-06, 2.5609343, 0.00056956045, 0.580479
3.13500, 0.00056544728, 0.0043809502, 4.80224e-06, 2.5536072, 0.00056956045, 0.580479
3.13600, 0.00056544778, 0.0042846538, 4.77784e-06, 2.5618923, 0.00056956045, 0.580479
3.13700, 0.00056560694, 0.0043123867, 4.64596e-06, 2.5429065, 0.00056956045, 0.580479
3.13800, 0.00056564708, 0.0042567407, 4.60386e-06, 2.5411103, 0.00056956045, 0.580479
3.13900, 0.00056569654, 0.0041718800, 4.53138e-06, 2.5461710, 0.00056956045, 0.580479
3.14000, 0.00056578576, 0.0040706405, 4.42387e-06, 2.5471780, 0.00056956045, 0.580479
3.14100, 0.00056584159, 0.0039818157, 4.35281e-06, 2.5492585, 0.00056956045, 0.580479
3.14200, 0.00056589035, 0.0038602047, 4.27085e-06, 2.5588458, 0.00056956045, 0.580479
3.14300, 0.00056601013, 0.0037505617, 4.13667e-06, 2.5566804, 0.00056956045, 0.580479
3.14400, 0.00056602693, 0.0037025779, 4.11129e-06, 2.5590279, 0.00056956045, 0.580479
3.14500, 0.00056611889, 0.0035881216, 4.00351e-06, 2.5593073, 0.00056956045, 0.580479
3.14600, 0.00056624670, 0.0034526715, 3.85124e-06, 2.5608051, 0.00056956045, 0.580479
3.14700, 0.00056625630, 0.0034526715, 3.84226e-06, 2.5598514, 0.00056956045, 0.580479
3.14800, 0.00056637241, 0.0034004871, 3.72848e-06, 2.5503051, 0.00056956045, 0.580479
3.14900, 0.00056644390, 0.0033296358, 3.64759e-06, 2.5490406, 0.00056956045, 0.580479
3.15000, 0.00056651244, 0.0032204373, 3.55584e-06, 2.5543439, 0.00056956045, 0.580479
3.15100, 0.00056656534, 0.0032204373, 3.51137e-06, 2.5462253, 0.00056956045, 0.580479
3.15200, 0.00056662473, 0.0032204373, 3.46215e-06, 2.5366676, 0.00056956045, 0.580479
3.15300, 0.00056668572, 0.0031265267, 3.37416e-06, 2.5442703, 0.00056956045, 0.580479
3.15400, 0.00056679655, 0.0029901010, 3.24762e-06, 2.5424426, 0.00056956045, 0.580479
3.15500, 0.00056679359, 0.0030881630, 3.27900e-06, 2.5288489, 0.00056956045, 0.580479
3.15600, 0.00056688012, 0.0029700999, 3.16518e-06, 2.5344050, 0.00056956045, 0.580479
3.15700, 0.00056695132, 0.0028887119, 3.08043e-06, 2.5347111, 0.00056956045, 0.580479
3.15800, 0.00056699482, 0.0027621367, 3.00792e-06, 2.5459602, 0.00056956045, 0.580479
3.15900, 0.00056707153, 0.0026067093, 2.90315e-06, 2.5543039, 0.00056956045, 0.580479
3.16000, 0.00056711808, 0.0026520467, 2.87142e-06, 2.5413640, 0.00056956045, 0.580479
3.16100, 0.00056719486, 0.0024897563, 2.75884e-06, 2.5545104, 0.00056956045, 0.580479
3.16200, 0.00056726205, 0.0024168694, 2.67739e-06, 2.5563967, 0.00056956045, 0.580479
3.16300, 0.00056731593, 0.0024168694, 2.62958e-06, 2.5469468, 0.00056956045, 0.580479
3.16400, 0.00056737003, 0.0022107877, 2.52421e-06, 2.5747383, 0.00056956045, 0.580479
3.16500, 0.00056744089, 0.0021561920, 2.45527e-06, 2.5657556, 0.00056956045, 0.580479
3.16600, 0.00056746865, 0.0021561920, 2.42423e-06, 2.5649545, 0.00056956045, 0.580479
3.16700, 0.00056755388, 0.0021283689, 2.33690e-06, 2.5566270, 0.00056956045, 0.580479
3.16800, 0.00056762686, 0.0021283689, 2.27986e-06, 2.5364392, 0.00056956045, 0.580479
3.16900, 0.00056764758, 0.0021283689, 2.25582e-06, 2.5361526, 0.00056956045, 0.580479
3.17000, 0.00056775709, 0.0020716023, 2.14942e-06, 2.5194223, 0.00056956045, 0.580479
3.17100, 0.00056782973, 0.0021283689, 2.10179e-06, 2.4914634, 0.00056956045, 0.580479
3.17200, 0.00056784572, 0.0019834081, 2.04875e-06, 2.5156534, 0.00056956045, 0.580479
3.17300, 0.00056798114, 0.0018593199, 1.90970e-06, 2.4976366, 0.00056956045, 0.580479
3.17400, 0.00056799016, 0.0019223655, 1.91330e-06, 2.4865849, 0.00056956045, 0.580479
3.17500, 0.00056803205, 0.0017605233, 1.82580e-06, 2.5158165, 0.00056956045, 0.580479
3.17600, 0.00056812054, 0.0015822123, 1.69908e-06, 2.5349300, 0.00056956045, 0.580479
3.17700, 0.00056813598, 0.0015440810, 1.67317e-06, 2.5422967, 0.00056956045, 0.580479
3.17800, 0.00056822932, 0.0013810680, 1.55666e-06, 2.5494421, 0.00056956045, 0.580479
3.17900, 0.00056831287, 0.0013372133, 1.46207e-06, 2.5458911, 0.00056956045, 0.580479
3.18000, 0.00056836038, 0.0013372133, 1.42225e-06, 2.5279133, 0.00056956045, 0.580479
3.18100, 0.00056841555, 0.0012448779, 1.34662e-06, 2.5399487, 0.00056956045, 0.580479
3.18200, 0.00056852603, 0.0012448779, 1.25236e-06, 2.4954999, 0.00056956045, 0.580479
3.18300, 0.00056857099, 0.0011451211, 1.19316e-06, 2.5013535, 0.00056956045, 0.580479
3.18400, 0.00056858592, 0.0010918301, 1.14280e-06, 2.5447052, 0.00056956045, 0.580479
3.18500, 0.00056868958, 0.0010918301, 1.07564e-06, 2.4670284, 0.00056956045, 0.580479
3.18600, 0.00056872247, 0.0010918301, 1.02620e-06, 2.4789431, 0.00056956045, 0.580479
3.18700, 0.00056881159, 0.00091349060, 9.17001e-07, 2.4789798, 0.00056956045, 0.580479
3.18800, 0.00056885631, 0.00091349060, 8.47468e-07, 2.5040462, 0.00056956045, 0.580479
3.18900, 0.00056890415, 0.00077204045, 8.04136e-07, 2.4780910, 0.00056956045, 0.580479
3.19000, 0.00056897763, 0.00077204045, 7.44853e-07, 2.4219606, 0.00056956045, 0.580479
3.19100, 0.00056902751, 0.00077204045, 6.81907e-07, 2.4204466, 0.00056956045, 0.580479
3.19200, 0.00056906434, 0.00059801998, 5.97538e-07, 2.5027993, 0.00056956045, 0.580479
3.19300, 0.00056916478, 0.00059801998, 5.19128e-07, 2.3899162, 0.00056956045, 0.580479
3.19400, 0.00056919456, 0.00048828125, 4.54135e-07, 2.4600084, 0.00056956045, 0.580479
3.19500, 0.00056926055, 0.00048828125, 3.67271e-07, 2.4785755, 0.00056956045, 0.580479
3.19600, 0.00056930656, 0.0000000, 3.03616e-07, 2.5134318, 0.00056956045, 0.580479
3.19700, 0.00056940795, 0.0000000, 2.04422e-07, 2.3650835, 0.00056956045, 0.580479
3.19800, 0.00056945832, 0.0000000, 1.49662e-07, 2.2740352, 0.00056956045, 0.580479
3.19900, 0.00056947998, 0.0000000, 9.24678e-08, 2.5785425, 0.00056956045, 0.580479
3.20000, 0.00056956045, -0.0000000, 0.00000, -2.1991150, 0.00056956045, 0.580479
3.20100, 0.00056967174, 0.0000000, 1.13343e-07, 0.14272636, 0.00056956045, 0.580479
3.20200, 0.00056970810, 0.0000000, 1.54339e-07, 0.24753666, 0.00056956045, 0.580479
3.20300, 0.00056977119, -0.0000000, 2.13739e-07, -0.21554954, 0.00056956045, 0.580479
3.20400, 0.00056987645, -0.0000000, 3.19536e-07, -0.19673324, 0.00056956045, 0.580479
3.20500, 0.00056989682, -0.0000000, 3.40142e-07, -0.19685204, 0.00056956045, 0.580479
3.20600, 0.00056997326, -0.0000000, 4.25224e-07, -0.29009084, 0.00056956045, 0.580479
3.20700, 0.00057004468, -0.0000000, 5.10248e-07, -0.36866764, 0.00056956045, 0.580479
3.20800, 0.00057006998, -0.00048828125, 5.53111e-07, -0.44763954, 0.00056956045, 0.580479
3.20900, 0.00057014249, -0.00048828125, 6.40584e-07, -0.47889904, 0.00056956045, 0.580479
3.21000, 0.00057021630, -0.00048828125, 7.18737e-07, -0.46951194, 0.00056956045, 0.580479
3.21100, 0.00057018587, -0.00059801998, 7.28040e-07, -0.58555634, 0.00056956045, 0.580479
3.21200, 0.00057035104, -0.00077204045, 9.08386e-07, -0.56316704, 0.00056956045, 0.580479
3.21300, 0.00057037039, -0.00077204045, 9.19477e-07, -0.54131094, 0.00056956045, 0.580479
3.21400, 0.00057043712, -0.00091349060, 1.00371e-06, -0.55686044, 0.00056956045, 0.580479
3.21500, 0.00057053375, -0.00097656250, 1.11456e-06, -0.55725574, 0.00056956045, 0.580479
3.21600, 0.00057057308, -0.00091349060, 1.14406e-06, -0.53235144, 0.00056956045, 0.580479
3.21700, 0.00057062236, -0.00097656250, 1.21344e-06, -0.55344704, 0.00056956045, 0.580479
3.21800, 0.00057072630, -0.0010918301, 1.30857e-06, -0.51975514, 0.00056956045, 0.580479
3.21900, 0.00057072442, -0.0010918301, 1.32034e-06, -0.54000444, 0.00056956045, 0.580479
3.22000, 0.00057079117, -0.0012448779, 1.41144e-06, -0.56003754, 0.00056956045, 0.580479
3.22100, 0.00057086932, -0.0011451211, 1.46170e-06, -0.50977524, 0.00056956045, 0.580479
3.22200, 0.00057089038, -0.0012448779, 1.51030e-06, -0.54217974, 0.00056956045, 0.580479
3.22300, 0.00057100107, -0.0012448779, 1.61188e-06, -0.51361814, 0.00056956045, 0.580479
3.22400, 0.00057103585, -0.0013372133, 1.65245e-06, -0.51562904, 0.00056956045, 0.580479
3.22500, 0.00057110144, -0.0013810680, 1.74220e-06, -0.53389894, 0.00056956045, 0.580479
3.22600, 0.00057115525, -0.0013810680, 1.78978e-06, -0.51966924, 0.00056956045, 0.580479
3.22700, 0.00057119458, -0.0015822123, 1.86540e-06, -0.55187024, 0.00056956045, 0.580479
3.22800, 0.00057124082, -0.0015822123, 1.91218e-06, -0.54615204, 0.00056956045, 0.580479
3.22900, 0.00057136907, -0.0017263351, 2.05847e-06, -0.54651774, 0.00056956045, 0.580479
3.23000, 0.00057135622, -0.0017605233, 2.06179e-06, -0.56233304, 0.00056956045, 0.580479
