time(s), Phieff(Wb), Thetaeff(rad), Phipl(Wb), DelTheta(rad), Phiext(Wb), Thetaext(rad)
3.00000, 0.00045174396, -0.052709952, 7.41293e-05, -2.7623222, 0.00052132116, -0.575905
3.00100, 0.00045183905, -0.052764226, 7.40499e-05, -2.7615450, 0.00052132116, -0.575905
3.00200, 0.00045212142, -0.052643161, 7.37675e-05, -2.7608097, 0.00052132116, -0.575905
3.00300, 0.00045246172, -0.052677132, 7.34576e-05, -2.7588880, 0.00052132116, -0.575905
3.00400, 0.00045285660, -0.053070743, 7.31585e-05, -2.7546156, 0.00052132116, -0.575905
3.00500, 0.00045329888, -0.053448070, 7.28144e-05, -2.7501466, 0.00052132116, -0.575905
3.00600, 0.00045382852, -0.053894725, 7.24036e-05, -2.7447641, 0.00052132116, -0.575905
3.00700, 0.00045430036, -0.054555669, 7.20869e-05, -2.7383807, 0.00052132116, -0.575905
3.00800, 0.00045484540, -0.055213034, 7.17055e-05, -2.7315581, 0.00052132116, -0.575905
3.00900, 0.00045535528, -0.055932015, 7.13719e-05, -2.7244842, 0.00052132116, -0.575905
3.01000, 0.00045583298, -0.056655567, 7.10723e-05, -2.7175062, 0.00052132116, -0.575905
3.01100, 0.00045637865, -0.057326328, 7.07049e-05, -2.7103646, 0.00052132116, -0.575905
3.01200, 0.00045684479, -0.058067448, 7.04275e-05, -2.7032073, 0.00052132116, -0.575905
3.01300, 0.00045735513, -0.058793150, 7.01113e-05, -2.6958048, 0.00052132116, -0.575905
3.01400, 0.00045789259, -0.059373561, 6.97456e-05, -2.6890123, 0.00052132116, -0.575905
3.01500, 0.00045840793, -0.060047764, 6.94226e-05, -2.6817343, 0.00052132116, -0.575905
3.01600, 0.00045898046, -0.060705647, 6.90495e-05, -2.6740997, 0.00052132116, -0.575905
3.01700, 0.00045956550, -0.061325371, 6.86621e-05, -2.6665061, 0.00052132116, -0.575905
3.01800, 0.00046007513, -0.062060114, 6.83707e-05, -2.6586568, 0.00052132116, -0.575905
3.01900, 0.00046065256, -0.062602662, 6.79817e-05, -2.6514080, 0.00052132116, -0.575905
3.02000, 0.00046121452, -0.063245319, 6.76332e-05, -2.6435716, 0.00052132116, -0.575905
3.02100, 0.00046172220, -0.063814260, 6.73196e-05, -2.6364896, 0.00052132116, -0.575905
3.02200, 0.00046228317, -0.064086601, 6.68951e-05, -2.6307123, 0.00052132116, -0.575905
3.02300, 0.00046275476, -0.064332768, 6.65440e-05, -2.6256960, 0.00052132116, -0.575905
3.02400, 0.00046325324, -0.064567834, 6.61694e-05, -2.6204727, 0.00052132116, -0.575905
3.02500, 0.00046376198, -0.064655527, 6.57524e-05, -2.6160128, 0.00052132116, -0.575905
3.02600, 0.00046420294, -0.064790078, 6.54065e-05, -2.6117337, 0.00052132116, -0.575905
3.02700, 0.00046471132, -0.064827815, 6.49806e-05, -2.6074674, 0.00052132116, -0.575905
3.02800, 0.00046517181, -0.064720996, 6.45615e-05, -2.6044219, 0.00052132116, -0.575905
3.02900, 0.00046549612, -0.064842530, 6.43150e-05, -2.6010344, 0.00052132116, -0.575905
3.03000, 0.00046586478, -0.064583533, 6.39379e-05, -2.5996144, 0.00052132116, -0.575905
3.03100, 0.00046629055, -0.064474463, 6.35493e-05, -2.5967705, 0.00052132116, -0.575905
3.03200, 0.00046657696, -0.064398557, 6.32875e-05, -2.5948551, 0.00052132116, -0.575905
3.03300, 0.00046697025, -0.064235345, 6.29139e-05, -2.5925658, 0.00052132116, -0.575905
3.03400, 0.00046732367, -0.064205624, 6.26075e-05, -2.5897505, 0.00052132116, -0.575905
3.03500, 0.00046769700, -0.064054020, 6.22542e-05, -2.5875094, 0.00052132116, -0.575905
3.03600, 0.00046810229, -0.063888989, 6.18708e-05, -2.5850532, 0.00052132116, -0.575905
3.03700, 0.00046843933, -0.063842297, 6.15750e-05, -2.5824115, 0.00052132116, -0.575905
3.03800, 0.00046884442, -0.063622363, 6.11789e-05, -2.5802443, 0.00052132116, -0.575905
3.03900, 0.00046930659, -0.063431770, 6.07419e-05, -2.5773685, 0.00052132116, -0.575905
3.04000, 0.00046964165, -0.063299052, 6.04272e-05, -2.5752122, 0.00052132116, -0.575905
3.04100, 0.00047009587, -0.063076288, 5.99896e-05, -2.5725443, 0.00052132116, -0.575905
3.04200, 0.00047053955, -0.063015737, 5.96034e-05, -2.5688617, 0.00052132116, -0.575905
3.04300, 0.00047085262, -0.062930495, 5.93201e-05, -2.5665209, 0.00052132116, -0.575905
3.04400, 0.00047124314, -0.062586464, 5.89052e-05, -2.5651486, 0.00052132116, -0.575905
3.04500, 0.00047159294, -0.062408958, 5.85675e-05, -2.5630376, 0.00052132116, -0.575905
3.04600, 0.00047185452, -0.062174372, 5.82884e-05, -2.5621288, 0.00052132116, -0.575905
3.04700, 0.00047224196, -0.061864711, 5.78851e-05, -2.5605104, 0.00052132116, -0.575905
3.04800, 0.00047260419, -0.061783675, 5.75634e-05, -2.5575526, 0.00052132116, -0.575905
3.04900, 0.00047296582, -0.061751813, 5.72554e-05, -2.5542410, 0.00052132116, -0.575905
3.05000, 0.00047336837, -0.061723795, 5.69151e-05, -2.5504663, 0.00052132116, -0.575905
3.05100, 0.00047366226, -0.061729595, 5.66746e-05, -2.5474918, 0.00052132116, -0.575905
3.05200, 0.00047397706, -0.061512787, 5.63572e-05, -2.5458229, 0.00052132116, -0.575905
3.05300, 0.00047428639, -0.061238751, 5.60291e-05, -2.5445864, 0.00052132116, -0.575905
3.05400, 0.00047454854, -0.061026067, 5.57562e-05, -2.5433967, 0.00052132116, -0.575905
3.05500, 0.00047482102, -0.060593542, 5.54152e-05, -2.5436399, 0.00052132116, -0.575905
3.05600, 0.00047517499, -0.060473341, 5.50918e-05, -2.5408361, 0.00052132116, -0.575905
3.05700, 0.00047542591, -0.060425982, 5.48733e-05, -2.5385559, 0.00052132116, -0.575905
3.05800, 0.00047574331, -0.060101371, 5.45247e-05, -2.5375383, 0.00052132116, -0.575905
3.05900, 0.00047601716, -0.060103357, 5.43014e-05, -2.5346248, 0.00052132116, -0.575905
3.06000, 0.00047631087, -0.059809912, 5.39806e-05, -2.5336101, 0.00052132116, -0.575905
3.06100, 0.00047662457, -0.059684139, 5.36902e-05, -2.5311439, 0.00052132116, -0.575905
3.06200, 0.00047690783, -0.059858754, 5.35080e-05, -2.5268099, 0.00052132116, -0.575905
3.06300, 0.00047719863, -0.059769016, 5.32471e-05, -2.5242755, 0.00052132116, -0.575905
3.06400, 0.00047750922, -0.059591137, 5.29454e-05, -2.5221517, 0.00052132116, -0.575905
3.06500, 0.00047767849, -0.059324320, 5.27337e-05, -2.5222237, 0.00052132116, -0.575905
3.06600, 0.00047788628, -0.058798220, 5.24181e-05, -2.5237873, 0.00052132116, -0.575905
3.06700, 0.00047817846, -0.058382921, 5.20651e-05, -2.5235999, 0.00052132116, -0.575905
3.06800, 0.00047832642, -0.058468666, 5.19687e-05, -2.5213072, 0.00052132116, -0.575905
3.06900, 0.00047862299, -0.058104411, 5.16267e-05, -2.5206645, 0.00052132116, -0.575905
3.07000, 0.00047885415, -0.057875071, 5.13752e-05, -2.5197547, 0.00052132116, -0.575905
3.07100, 0.00047903825, -0.057684120, 5.11724e-05, -2.5190923, 0.00052132116, -0.575905
3.07200, 0.00047925651, -0.057387672, 5.09117e-05, -2.5188501, 0.00052132116, -0.575905
3.07300, 0.00047952778, -0.057585821, 5.07489e-05, -2.5141847, 0.00052132116, -0.575905
3.07400, 0.00047975452, -0.057590999, 5.05675e-05, -2.5114992, 0.00052132116, -0.575905
3.07500, 0.00047999301, -0.057330489, 5.03015e-05, -2.5106833, 0.00052132116, -0.575905
3.07600, 0.00048016147, -0.057131458, 5.01093e-05, -2.5102193, 0.00052132116, -0.575905
3.07700, 0.00048034378, -0.056628194, 4.98192e-05, -2.5119484, 0.00052132116, -0.575905
3.07800, 0.00048055053, -0.056396030, 4.95865e-05, -2.5112937, 0.00052132116, -0.575905
3.07900, 0.00048067869, -0.056493234, 4.95108e-05, -2.5090072, 0.00052132116, -0.575905
3.08000, 0.00048083497, -0.056074709, 4.92659e-05, -2.5103977, 0.00052132116, -0.575905
3.08100, 0.00048101220, -0.055778269, 4.90384e-05, -2.5106027, 0.00052132116, -0.575905
3.08200, 0.00048111167, -0.055683032, 4.89311e-05, -2.5101531, 0.00052132116, -0.575905
3.08300, 0.00048130948, -0.055551145, 4.87343e-05, -2.5087931, 0.00052132116, -0.575905
3.08400, 0.00048144734, -0.055257298, 4.85394e-05, -2.5094512, 0.00052132116, -0.575905
3.08500, 0.00048161090, -0.055108164, 4.83652e-05, -2.5086391, 0.00052132116, -0.575905
3.08600, 0.00048177887, -0.055080023, 4.82219e-05, -2.5068023, 0.00052132116, -0.575905
3.08700, 0.00048196690, -0.054829352, 4.79989e-05, -2.5064938, 0.00052132116, -0.575905
3.08800, 0.00048214489, -0.054720480, 4.78248e-05, -2.5051572, 0.00052132116, -0.575905
3.08900, 0.00048236649, -0.054234453, 4.75074e-05, -2.5063331, 0.00052132116, -0.575905
3.09000, 0.00048253372, -0.054344296, 4.74043e-05, -2.5033476, 0.00052132116, -0.575905
3.09100, 0.00048272507, -0.053926803, 4.71308e-05, -2.5043442, 0.00052132116, -0.575905
3.09200, 0.00048292669, -0.053550616, 4.68609e-05, -2.5048850, 0.00052132116, -0.575905
3.09300, 0.00048312164, -0.053372148, 4.66528e-05, -2.5038865, 0.00052132116, -0.575905
3.09400, 0.00048334332, -0.052868098, 4.63293e-05, -2.5052679, 0.00052132116, -0.575905
3.09500, 0.00048351304, -0.052654486, 4.61316e-05, -2.5048759, 0.00052132116, -0.575905
3.09600, 0.00048367309, -0.052265730, 4.58913e-05, -2.5060918, 0.00052132116, -0.575905
3.09700, 0.00048390077, -0.051783171, 4.55696e-05, -2.5072501, 0.00052132116, -0.575905
3.09800, 0.00048408969, -0.051845320, 4.54353e-05, -2.5042570, 0.00052132116, -0.575905
3.09900, 0.00048431399, -0.051463202, 4.51449e-05, -2.5046008, 0.00052132116, -0.575905
3.10000, 0.00048456679, -0.051327456, 4.49028e-05, -2.5024278, 0.00052132116, -0.575905
3.10100, 0.00048473350, -0.051095739, 4.47016e-05, -2.5022371, 0.00052132116, -0.575905
3.10200, 0.00048498472, -0.050771441, 4.44066e-05, -2.5016992, 0.00052132116, -0.575905
3.10300, 0.00048521506, -0.050318420, 4.40904e-05, -2.5026004, 0.00052132116, -0.575905
3.10400, 0.00048542944, -0.050180767, 4.38786e-05, -2.5009124, 0.00052132116, -0.575905
3.10500, 0.00048566914, -0.049815822, 4.35803e-05, -2.5009077, 0.00052132116, -0.575905
3.10600, 0.00048596098, -0.049567424, 4.32745e-05, -2.4991176, 0.00052132116, -0.575905
3.10700, 0.00048614007, -0.049465064, 4.31007e-05, -2.4975784, 0.00052132116, -0.575905
3.10800, 0.00048648469, -0.049160346, 4.27359e-05, -2.4955375, 0.00052132116, -0.575905
3.10900, 0.00048673451, -0.048823208, 4.24380e-05, -2.4950917, 0.00052132116, -0.575905
3.11000, 0.00048697178, -0.048436970, 4.21351e-05, -2.4952972, 0.00052132116, -0.575905
3.11100, 0.00048720692, -0.048154235, 4.18643e-05, -2.4945686, 0.00052132116, -0.575905
3.11200, 0.00048744709, -0.047973108, 4.16194e-05, -2.4928014, 0.00052132116, -0.575905
3.11300, 0.00048771035, -0.047685124, 4.13244e-05, -2.4916990, 0.00052132116, -0.575905
3.11400, 0.00048801385, -0.047740113, 4.10988e-05, -2.4867284, 0.00052132116, -0.575905
3.11500, 0.00048827611, -0.047559917, 4.08365e-05, -2.4845684, 0.00052132116, -0.575905
3.11600, 0.00048851403, -0.047237873, 4.05523e-05, -2.4840801, 0.00052132116, -0.575905
3.11700, 0.00048873520, -0.046899639, 4.02765e-05, -2.4839995, 0.00052132116, -0.575905
3.11800, 0.00048892688, -0.046755753, 4.00812e-05, -2.4825027, 0.00052132116, -0.575905
3.11900, 0.00048923509, -0.046660010, 3.98080e-05, -2.4787395, 0.00052132116, -0.575905
3.12000, 0.00048943082, -0.046214458, 3.95199e-05, -2.4800842, 0.00052132116, -0.575905
3.12100, 0.00048962227, -0.046271190, 3.93852e-05, -2.4765651, 0.00052132116, -0.575905
3.12200, 0.00048983030, -0.045932334, 3.91194e-05, -2.4766553, 0.00052132116, -0.575905
3.12300, 0.00049007104, -0.045525521, 3.88071e-05, -2.4769213, 0.00052132116, -0.575905
3.12400, 0.00049024501, -0.045278627, 3.85957e-05, -2.4766390, 0.00052132116, -0.575905
3.12500, 0.00049053255, -0.045179754, 3.83384e-05, -2.4730666, 0.00052132116, -0.575905
3.12600, 0.00049067137, -0.044829994, 3.81235e-05, -2.4743836, 0.00052132116, -0.575905
3.12700, 0.00049088819, -0.044799391, 3.79433e-05, -2.4711893, 0.00052132116, -0.575905
3.12800, 0.00049117174, -0.044515003, 3.76339e-05, -2.4694798, 0.00052132116, -0.575905
3.12900, 0.00049128184, -0.044470780, 3.75338e-05, -2.4681289, 0.00052132116, -0.575905
3.13000, 0.00049154143, -0.043909490, 3.71592e-05, -2.4696620, 0.00052132116, -0.575905
3.13100, 0.00049178711, -0.043520775, 3.68482e-05, -2.4696353, 0.00052132116, -0.575905
3.13200, 0.00049195807, -0.043225221, 3.66240e-05, -2.4698904, 0.00052132116, -0.575905
3.13300, 0.00049224856, -0.042897068, 3.62952e-05, -2.4684932, 0.00052132116, -0.575905
3.13400, 0.00049242756, -0.042741112, 3.61072e-05, -2.4671056, 0.00052132116, -0.575905
3.13500, 0.00049267910, -0.042764820, 3.59170e-05, -2.4625228, 0.00052132116, -0.575905
3.13600, 0.00049278464, -0.042456992, 3.57398e-05, -2.4640319, 0.00052132116, -0.575905
3.13700, 0.00049288925, -0.042221822, 3.55861e-05, -2.4647634, 0.00052132116, -0.575905
3.13800, 0.00049302197, -0.041971132, 3.54052e-05, -2.4651959, 0.00052132116, -0.575905
3.13900, 0.00049319035, -0.041754648, 3.52070e-05, -2.4646204, 0.00052132116, -0.575905
3.14000, 0.00049335825, -0.041578647, 3.50212e-05, -2.4636123, 0.00052132116, -0.575905
3.14100, 0.00049352941, -0.041280750, 3.47962e-05, -2.4638736, 0.00052132116, -0.575905
3.14200, 0.00049375898, -0.040937021, 3.45108e-05, -2.4636281, 0.00052132116, -0.575905
3.14300, 0.00049386627, -0.041143313, 3.44897e-05, -2.4593861, 0.00052132116, -0.575905
3.14400, 0.00049406646, -0.040707722, 3.41992e-05, -2.4606755, 0.00052132116, -0.575905
3.14500, 0.00049431185, -0.040891849, 3.40637e-05, -2.4541195, 0.00052132116, -0.575905
3.14600, 0.00049444974, -0.040502157, 3.38361e-05, -2.4559972, 0.00052132116, -0.575905
3.14700, 0.00049461280, -0.040282227, 3.36406e-05, -2.4555085, 0.00052132116, -0.575905
3.14800, 0.00049470115, -0.039769825, 3.34139e-05, -2.4597809, 0.00052132116, -0.575905
3.14900, 0.00049487961, -0.039523203, 3.31982e-05, -2.4593313, 0.00052132116, -0.575905
3.15000, 0.00049505190, -0.039153401, 3.29494e-05, -2.4604499, 0.00052132116, -0.575905
3.15100, 0.00049523351, -0.039300829, 3.28523e-05, -2.4552877, 0.00052132116, -0.575905
3.15200, 0.00049549478, -0.039203618, 3.26183e-05, -2.4514463, 0.00052132116, -0.575905
3.15300, 0.00049563157, -0.038887545, 3.24141e-05, -2.4525507, 0.00052132116, -0.575905
3.15400, 0.00049580476, -0.038656890, 3.22066e-05, -2.4519923, 0.00052132116, -0.575905
3.15500, 0.00049595870, -0.038407784, 3.20096e-05, -2.4519808, 0.00052132116, -0.575905
3.15600, 0.00049620603, -0.038110148, 3.17239e-05, -2.4507535, 0.00052132116, -0.575905
3.15700, 0.00049636971, -0.037724927, 3.14772e-05, -2.4522121, 0.00052132116, -0.575905
3.15800, 0.00049658236, -0.037691724, 3.13010e-05, -2.4483826, 0.00052132116, -0.575905
3.15900, 0.00049680069, -0.037397958, 3.10394e-05, -2.4476311, 0.00052132116, -0.575905
3.16000, 0.00049701472, -0.037507795, 3.09074e-05, -2.4419167, 0.00052132116, -0.575905
3.16100, 0.00049735508, -0.037303783, 3.05804e-05, -2.4374278, 0.00052132116, -0.575905
3.16200, 0.00049745591, -0.036863279, 3.03629e-05, -2.4409106, 0.00052132116, -0.575905
3.16300, 0.00049765934, -0.036603600, 3.01236e-05, -2.4399607, 0.00052132116, -0.575905
3.16400, 0.00049793991, -0.035992611, 2.97142e-05, -2.4418953, 0.00052132116, -0.575905
3.16500, 0.00049807977, -0.035878137, 2.95702e-05, -2.4403870, 0.00052132116, -0.575905
3.16600, 0.00049832875, -0.035517406, 2.92635e-05, -2.4397729, 0.00052132116, -0.575905
3.16700, 0.00049859788, -0.035315406, 2.89916e-05, -2.4365871, 0.00052132116, -0.575905
3.16800, 0.00049876497, -0.035028953, 2.87720e-05, -2.4367287, 0.00052132116, -0.575905
3.16900, 0.00049903486, -0.034611192, 2.84310e-05, -2.4363792, 0.00052132116, -0.575905
3.17000, 0.00049923236, -0.034724686, 2.83143e-05, -2.4304283, 0.00052132116, -0.575905
3.17100, 0.00049943390, -0.034588791, 2.81166e-05, -2.4276788, 0.00052132116, -0.575905
3.17200, 0.00049960561, -0.034500778, 2.79567e-05, -2.4249494, 0.00052132116, -0.575905
3.17300, 0.00049984107, -0.034322333, 2.77190e-05, -2.4219568, 0.00052132116, -0.575905
3.17400, 0.00049997644, -0.034393474, 2.76385e-05, -2.4178255, 0.00052132116, -0.575905
3.17500, 0.00050021018, -0.034139466, 2.73788e-05, -2.4157970, 0.00052132116, -0.575905
3.17600, 0.00050034389, -0.033841301, 2.71795e-05, -2.4168041, 0.00052132116, -0.575905
3.17700, 0.00050052313, -0.033714227, 2.70024e-05, -2.4142683, 0.00052132116, -0.575905
3.17800, 0.00050075322, -0.033492465, 2.67552e-05, -2.4118373, 0.00052132116, -0.575905
3.17900, 0.00050089550, -0.033285346, 2.65802e-05, -2.4112814, 0.00052132116, -0.575905
3.18000, 0.00050104733, -0.033265639, 2.64578e-05, -2.4078658, 0.00052132116, -0.575905
3.18100, 0.00050127101, -0.033028234, 2.62117e-05, -2.4056695, 0.00052132116, -0.575905
3.18200, 0.00050139691, -0.032749087, 2.60253e-05, -2.4065287, 0.00052132116, -0.575905
3.18300, 0.00050160952, -0.032615930, 2.58204e-05, -2.4031146, 0.00052132116, -0.575905
3.18400, 0.00050181871, -0.032438148, 2.56044e-05, -2.4003542, 0.00052132116, -0.575905
3.18500, 0.00050190120, -0.032196496, 2.54627e-05, -2.4017789, 0.00052132116, -0.575905
3.18600, 0.00050208875, -0.032072198, 2.52806e-05, -2.3987477, 0.00052132116, -0.575905
3.18700, 0.00050220883, -0.031824023, 2.51081e-05, -2.3993104, 0.00052132116, -0.575905
3.18800, 0.00050235669, -0.031673808, 2.49473e-05, -2.3976653, 0.00052132116, -0.575905
3.18900, 0.00050255433, -0.031534221, 2.47531e-05, -2.3944938, 0.00052132116, -0.575905
3.19000, 0.00050264202, -0.031713307, 2.47478e-05, -2.3894136, 0.00052132116, -0.575905
3.19100, 0.00050278263, -0.031241732, 2.44840e-05, -2.3928297, 0.00052132116, -0.575905
3.19200, 0.00050292294, -0.030821012, 2.42384e-05, -2.3955104, 0.00052132116, -0.575905
3.19300, 0.00050305647, -0.030638658, 2.40784e-05, -2.3946521, 0.00052132116, -0.575905
3.19400, 0.00050322080, -0.030201649, 2.38101e-05, -2.3969667, 0.00052132116, -0.575905
3.19500, 0.00050345215, -0.029981751, 2.35628e-05, -2.3940313, 0.00052132116, -0.575905
3.19600, 0.00050360664, -0.029798264, 2.33864e-05, -2.3925841, 0.00052132116, -0.575905
3.19700, 0.00050381687, -0.029694051, 2.31937e-05, -2.3882992, 0.00052132116, -0.575905
3.19800, 0.00050393004, -0.029482501, 2.30387e-05, -2.3884475, 0.00052132116, -0.575905
3.19900, 0.00050403627, -0.029169453, 2.28546e-05, -2.3904808, 0.00052132116, -0.575905
3.20000, 0.00050417272, -0.029028097, 2.27056e-05, -2.3888137, 0.00052132116, -0.575905
3.20100, 0.00050430126, -0.028968481, 2.25894e-05, -2.3860347, 0.00052132116, -0.575905
3.20200, 0.00050447918, -0.028720476, 2.23739e-05, -2.3848569, 0.00052132116, -0.575905
3.20300, 0.00050465865, -0.028447270, 2.21479e-05, -2.3840816, 0.00052132116, -0.575905
3.20400, 0.00050477271, -0.028394833, 2.20452e-05, -2.3815258, 0.00052132116, -0.575905
3.20500, 0.00050500826, -0.028382234, 2.18668e-05, -2.3745143, 0.00052132116, -0.575905
3.20600, 0.00050518804, -0.027794350, 2.15335e-05, -2.3790386, 0.00052132116, -0.575905
3.20700, 0.00050533646, -0.027446872, 2.13062e-05, -2.3804195, 0.00052132116, -0.575905
3.20800, 0.00050556730, -0.027053105, 2.10018e-05, -2.3800485, 0.00052132116, -0.575905
3.20900, 0.00050572571, -0.026820738, 2.08050e-05, -2.3791502, 0.00052132116, -0.575905
3.21000, 0.00050582374, -0.026509997, 2.06267e-05, -2.3816097, 0.00052132116, -0.575905
3.21100, 0.00050594609, -0.026010592, 2.03680e-05, -2.3867385, 0.00052132116, -0.575905
3.21200, 0.00050608086, -0.025648253, 2.01443e-05, -2.3891423, 0.00052132116, -0.575905
3.21300, 0.00050624391, -0.025449932, 1.99560e-05, -2.3874686, 0.00052132116, -0.575905
3.21400, 0.00050645988, -0.024902986, 1.96103e-05, -2.3907249, 0.00052132116, -0.575905
3.21500, 0.00050662249, -0.024804650, 1.94562e-05, -2.3870752, 0.00052132116, -0.575905
3.21600, 0.00050681334, -0.024368234, 1.91667e-05, -2.3890808, 0.00052132116, -0.575905
3.21700, 0.00050704991, -0.024122370, 1.89072e-05, -2.3857172, 0.00052132116, -0.575905
3.21800, 0.00050713553, -0.023848994, 1.87511e-05, -2.3882048, 0.00052132116, -0.575905
3.21900, 0.00050730817, -0.023976129, 1.86652e-05, -2.3794930, 0.00052132116, -0.575905
3.22000, 0.00050740062, -0.023440579, 1.84156e-05, -2.3870676, 0.00052132116, -0.575905
3.22100, 0.00050747511, -0.023164304, 1.82656e-05, -2.3901880, 0.00052132116, -0.575905
3.22200, 0.00050759349, -0.022824707, 1.80641e-05, -2.3929432, 0.00052132116, -0.575905
3.22300, 0.00050778922, -0.022501182, 1.78086e-05, -2.3926485, 0.00052132116, -0.575905
3.22400, 0.00050793880, -0.022181002, 1.75889e-05, -2.3940103, 0.00052132116, -0.575905
3.22500, 0.00050813301, -0.021809721, 1.73182e-05, -2.3948720, 0.00052132116, -0.575905
