time(s), Phieff(Wb), Thetaeff(rad), Phipl(Wb), DelTheta(rad), Phiext(Wb), Thetaext(rad)
3.00000, 0.00050286652, 0.071241394, 8.25649e-05, 2.6458852, 0.00057599309, 0.581026
3.00100, 0.00050306976, 0.070956118, 8.23169e-05, 2.6461799, 0.00057599309, 0.581026
3.00200, 0.00050332771, 0.070723698, 8.20350e-05, 2.6458566, 0.00057599309, 0.581026
3.00300, 0.00050368320, 0.070591144, 8.16935e-05, 2.6444032, 0.00057599309, 0.581026
3.00400, 0.00050405599, 0.070620716, 8.13775e-05, 2.6419709, 0.00057599309, 0.581026
3.00500, 0.00050453066, 0.070685729, 8.09832e-05, 2.6386902, 0.00057599309, 0.581026
3.00600, 0.00050505159, 0.070681512, 8.05319e-05, 2.6354683, 0.00057599309, 0.581026
3.00700, 0.00050562805, 0.070846736, 8.00776e-05, 2.6309278, 0.00057599309, 0.581026
3.00800, 0.00050621673, 0.070982173, 7.96067e-05, 2.6264207, 0.00057599309, 0.581026
3.00900, 0.00050678488, 0.071071208, 7.91429e-05, 2.6222475, 0.00057599309, 0.581026
3.01000, 0.00050734055, 0.071274877, 7.87215e-05, 2.6174758, 0.00057599309, 0.581026
3.01100, 0.00050789192, 0.071453765, 7.82991e-05, 2.6128161, 0.00057599309, 0.581026
3.01200, 0.00050838473, 0.071637206, 7.79294e-05, 2.6084774, 0.00057599309, 0.581026
3.01300, 0.00050887423, 0.071841769, 7.75697e-05, 2.6040037, 0.00057599309, 0.581026
3.01400, 0.00050930635, 0.071879961, 7.72150e-05, 2.6008046, 0.00057599309, 0.581026
3.01500, 0.00050969222, 0.072019249, 7.69277e-05, 2.5973375, 0.00057599309, 0.581026
3.01600, 0.00051008010, 0.072082177, 7.66187e-05, 2.5942547, 0.00057599309, 0.581026
3.01700, 0.00051050236, 0.072105348, 7.62704e-05, 2.5911281, 0.00057599309, 0.581026
3.01800, 0.00051081373, 0.072175637, 7.60290e-05, 2.5885027, 0.00057599309, 0.581026
3.01900, 0.00051119388, 0.072179772, 7.57119e-05, 2.5857389, 0.00057599309, 0.581026
3.02000, 0.00051153093, 0.072186381, 7.54324e-05, 2.5832460, 0.00057599309, 0.581026
3.02100, 0.00051177304, 0.072235122, 7.52441e-05, 2.5811994, 0.00057599309, 0.581026
3.02200, 0.00051212314, 0.072254121, 7.49578e-05, 2.5785134, 0.00057599309, 0.581026
3.02300, 0.00051238812, 0.072322614, 7.47573e-05, 2.5761507, 0.00057599309, 0.581026
3.02400, 0.00051268039, 0.072333336, 7.45175e-05, 2.5739110, 0.00057599309, 0.581026
3.02500, 0.00051298150, 0.072425649, 7.42945e-05, 2.5711181, 0.00057599309, 0.581026
3.02600, 0.00051319339, 0.072393522, 7.41100e-05, 2.5696967, 0.00057599309, 0.581026
3.02700, 0.00051349210, 0.072444595, 7.38777e-05, 2.5671351, 0.00057599309, 0.581026
3.02800, 0.00051376101, 0.072501391, 7.36727e-05, 2.5647419, 0.00057599309, 0.581026
3.02900, 0.00051401689, 0.072537586, 7.34724e-05, 2.5625632, 0.00057599309, 0.581026
3.03000, 0.00051426552, 0.072538406, 7.32682e-05, 2.5606301, 0.00057599309, 0.581026
3.03100, 0.00051454004, 0.072419062, 7.30078e-05, 2.5591767, 0.00057599309, 0.581026
3.03200, 0.00051472138, 0.072501391, 7.28831e-05, 2.5572817, 0.00057599309, 0.581026
3.03300, 0.00051498847, 0.072452828, 7.26500e-05, 2.5554574, 0.00057599309, 0.581026
3.03400, 0.00051526284, 0.072273105, 7.23720e-05, 2.5543339, 0.00057599309, 0.581026
3.03500, 0.00051541257, 0.072283834, 7.22528e-05, 2.5530784, 0.00057599309, 0.581026
3.03600, 0.00051572294, 0.072093762, 7.19430e-05, 2.5517023, 0.00057599309, 0.581026
3.03700, 0.00051594825, 0.072044924, 7.17443e-05, 2.5501816, 0.00057599309, 0.581026
3.03800, 0.00051617923, 0.071996056, 7.15413e-05, 2.5486038, 0.00057599309, 0.581026
3.03900, 0.00051649023, 0.071811870, 7.12325e-05, 2.5471690, 0.00057599309, 0.581026
3.04000, 0.00051667774, 0.071821004, 7.10827e-05, 2.5455825, 0.00057599309, 0.581026
3.04100, 0.00051695856, 0.071781956, 7.08427e-05, 2.5435083, 0.00057599309, 0.581026
3.04200, 0.00051723189, 0.071567222, 7.05559e-05, 2.5425289, 0.00057599309, 0.581026
3.04300, 0.00051746901, 0.071574725, 7.03658e-05, 2.5405166, 0.00057599309, 0.581026
3.04400, 0.00051775140, 0.071396969, 7.00829e-05, 2.5392253, 0.00057599309, 0.581026
3.04500, 0.00051800407, 0.071233854, 6.98289e-05, 2.5380809, 0.00057599309, 0.581026
3.04600, 0.00051824663, 0.071145870, 6.96056e-05, 2.5365703, 0.00057599309, 0.581026
3.04700, 0.00051853097, 0.070940986, 6.93132e-05, 2.5353973, 0.00057599309, 0.581026
3.04800, 0.00051877843, 0.070807151, 6.90725e-05, 2.5340970, 0.00057599309, 0.581026
3.04900, 0.00051905312, 0.070684046, 6.88131e-05, 2.5324919, 0.00057599309, 0.581026
3.05000, 0.00051932563, 0.070377871, 6.84994e-05, 2.5320113, 0.00057599309, 0.581026
3.05100, 0.00051962194, 0.070231922, 6.82156e-05, 2.5303414, 0.00057599309, 0.581026
3.05200, 0.00051988526, 0.070036300, 6.79436e-05, 2.5292442, 0.00057599309, 0.581026
3.05300, 0.00052019693, 0.069782011, 6.76141e-05, 2.5280883, 0.00057599309, 0.581026
3.05400, 0.00052044699, 0.069601409, 6.73572e-05, 2.5270050, 0.00057599309, 0.581026
3.05500, 0.00052073498, 0.069314554, 6.70370e-05, 2.5262392, 0.00057599309, 0.581026
3.05600, 0.00052104191, 0.069080941, 6.67180e-05, 2.5249670, 0.00057599309, 0.581026
3.05700, 0.00052124855, 0.068949565, 6.65113e-05, 2.5239422, 0.00057599309, 0.581026
3.05800, 0.00052158927, 0.068686925, 6.61561e-05, 2.5225337, 0.00057599309, 0.581026
3.05900, 0.00052184100, 0.068416297, 6.58696e-05, 2.5219753, 0.00057599309, 0.581026
3.06000, 0.00052207822, 0.068281896, 6.56376e-05, 2.5206707, 0.00057599309, 0.581026
3.06100, 0.00052241021, 0.067967556, 6.52736e-05, 2.5196374, 0.00057599309, 0.581026
3.06200, 0.00052265638, 0.067724012, 6.50003e-05, 2.5189350, 0.00057599309, 0.581026
3.06300, 0.00052296094, 0.067506991, 6.46884e-05, 2.5175197, 0.00057599309, 0.581026
3.06400, 0.00052326271, 0.067192584, 6.43485e-05, 2.5167444, 0.00057599309, 0.581026
3.06500, 0.00052350515, 0.066966712, 6.40835e-05, 2.5159495, 0.00057599309, 0.581026
3.06600, 0.00052377319, 0.066577226, 6.37470e-05, 2.5159714, 0.00057599309, 0.581026
3.06700, 0.00052404594, 0.066266507, 6.34312e-05, 2.5154378, 0.00057599309, 0.581026
3.06800, 0.00052429236, 0.066077210, 6.31749e-05, 2.5143430, 0.00057599309, 0.581026
3.06900, 0.00052458787, 0.065711513, 6.28231e-05, 2.5139577, 0.00057599309, 0.581026
3.07000, 0.00052489504, 0.065263391, 6.24364e-05, 2.5140016, 0.00057599309, 0.581026
3.07100, 0.00052512157, 0.065059260, 6.21909e-05, 2.5131891, 0.00057599309, 0.581026
3.07200, 0.00052541227, 0.064704403, 6.18463e-05, 2.5127719, 0.00057599309, 0.581026
3.07300, 0.00052566227, 0.064457811, 6.15688e-05, 2.5120051, 0.00057599309, 0.581026
3.07400, 0.00052591289, 0.064203762, 6.12883e-05, 2.5112813, 0.00057599309, 0.581026
3.07500, 0.00052621273, 0.063872181, 6.09441e-05, 2.5105951, 0.00057599309, 0.581026
3.07600, 0.00052641338, 0.063621424, 6.07045e-05, 2.5103347, 0.00057599309, 0.581026
3.07700, 0.00052670916, 0.063322604, 6.03736e-05, 2.5094607, 0.00057599309, 0.581026
3.07800, 0.00052701369, 0.062975973, 6.00208e-05, 2.5088194, 0.00057599309, 0.581026
3.07900, 0.00052723809, 0.062672168, 5.97450e-05, 2.5086930, 0.00057599309, 0.581026
3.08000, 0.00052754265, 0.062350631, 5.93998e-05, 2.5078747, 0.00057599309, 0.581026
3.08100, 0.00052781025, 0.061979331, 5.90682e-05, 2.5077813, 0.00057599309, 0.581026
3.08200, 0.00052800844, 0.061775953, 5.88453e-05, 2.5072038, 0.00057599309, 0.581026
3.08300, 0.00052829475, 0.061275750, 5.84576e-05, 2.5078456, 0.00057599309, 0.581026
3.08400, 0.00052852663, 0.060965445, 5.81740e-05, 2.5076835, 0.00057599309, 0.581026
3.08500, 0.00052881103, 0.060673214, 5.78539e-05, 2.5068505, 0.00057599309, 0.581026
3.08600, 0.00052908291, 0.060210429, 5.74893e-05, 2.5073936, 0.00057599309, 0.581026
3.08700, 0.00052936128, 0.059863735, 5.71570e-05, 2.5070102, 0.00057599309, 0.581026
3.08800, 0.00052959705, 0.059538066, 5.68647e-05, 2.5069358, 0.00057599309, 0.581026
3.08900, 0.00052989680, 0.059186433, 5.65130e-05, 2.5063760, 0.00057599309, 0.581026
3.09000, 0.00053007819, 0.058929931, 5.62862e-05, 2.5063636, 0.00057599309, 0.581026
3.09100, 0.00053034020, 0.058534928, 5.59514e-05, 2.5065177, 0.00057599309, 0.581026
3.09200, 0.00053066874, 0.058227446, 5.55904e-05, 2.5053141, 0.00057599309, 0.581026
3.09300, 0.00053081517, 0.058020182, 5.54075e-05, 2.5052989, 0.00057599309, 0.581026
3.09400, 0.00053107944, 0.057545416, 5.50449e-05, 2.5060556, 0.00057599309, 0.581026
3.09500, 0.00053133590, 0.057153374, 5.47147e-05, 2.5062769, 0.00057599309, 0.581026
3.09600, 0.00053160224, 0.056841575, 5.44021e-05, 2.5057714, 0.00057599309, 0.581026
3.09700, 0.00053186364, 0.056572352, 5.41075e-05, 2.5049718, 0.00057599309, 0.581026
3.09800, 0.00053210154, 0.056137420, 5.37780e-05, 2.5057533, 0.00057599309, 0.581026
3.09900, 0.00053232730, 0.055707660, 5.34601e-05, 2.5066373, 0.00057599309, 0.581026
3.10000, 0.00053261397, 0.055316623, 5.31059e-05, 2.5065353, 0.00057599309, 0.581026
3.10100, 0.00053285389, 0.054999843, 5.28130e-05, 2.5063617, 0.00057599309, 0.581026
3.10200, 0.00053310262, 0.054541457, 5.24673e-05, 2.5072525, 0.00057599309, 0.581026
3.10300, 0.00053340872, 0.053999737, 5.20493e-05, 2.5081794, 0.00057599309, 0.581026
3.10400, 0.00053362826, 0.053756237, 5.17955e-05, 2.5076635, 0.00057599309, 0.581026
3.10500, 0.00053386048, 0.053402305, 5.14963e-05, 2.5079148, 0.00057599309, 0.581026
3.10600, 0.00053413410, 0.052984152, 5.11433e-05, 2.5082295, 0.00057599309, 0.581026
3.10700, 0.00053437322, 0.052598964, 5.08287e-05, 2.5086730, 0.00057599309, 0.581026
3.10800, 0.00053464481, 0.052278280, 5.05089e-05, 2.5081842, 0.00057599309, 0.581026
3.10900, 0.00053490311, 0.051965948, 5.02015e-05, 2.5078027, 0.00057599309, 0.581026
3.11000, 0.00053514376, 0.051603217, 4.98926e-05, 2.5080526, 0.00057599309, 0.581026
3.11100, 0.00053544297, 0.051216967, 4.95297e-05, 2.5077942, 0.00057599309, 0.581026
3.11200, 0.00053567473, 0.050915699, 4.92470e-05, 2.5076373, 0.00057599309, 0.581026
3.11300, 0.00053594174, 0.050633840, 4.89428e-05, 2.5068638, 0.00057599309, 0.581026
3.11400, 0.00053620861, 0.050112989, 4.85616e-05, 2.5082271, 0.00057599309, 0.581026
3.11500, 0.00053646704, 0.049721170, 4.82294e-05, 2.5085352, 0.00057599309, 0.581026
3.11600, 0.00053671735, 0.049433712, 4.79359e-05, 2.5080402, 0.00057599309, 0.581026
3.11700, 0.00053699621, 0.048902526, 4.75427e-05, 2.5093739, 0.00057599309, 0.581026
3.11800, 0.00053721187, 0.048486184, 4.72365e-05, 2.5104868, 0.00057599309, 0.581026
3.11900, 0.00053750253, 0.047953218, 4.68329e-05, 2.5117519, 0.00057599309, 0.581026
3.12000, 0.00053779228, 0.047483377, 4.64498e-05, 2.5124734, 0.00057599309, 0.581026
3.12100, 0.00053799781, 0.047186092, 4.61895e-05, 2.5126550, 0.00057599309, 0.581026
3.12200, 0.00053829144, 0.046725139, 4.58063e-05, 2.5132611, 0.00057599309, 0.581026
3.12300, 0.00053855344, 0.046208005, 4.54303e-05, 2.5148513, 0.00057599309, 0.581026
3.12400, 0.00053882496, 0.045995899, 4.51437e-05, 2.5133703, 0.00057599309, 0.581026
3.12500, 0.00053909327, 0.045562178, 4.47897e-05, 2.5140717, 0.00057599309, 0.581026
3.12600, 0.00053934475, 0.045244373, 4.44853e-05, 2.5138900, 0.00057599309, 0.581026
3.12700, 0.00053962636, 0.044816691, 4.41221e-05, 2.5143869, 0.00057599309, 0.581026
3.12800, 0.00053990293, 0.044332467, 4.37443e-05, 2.5155580, 0.00057599309, 0.581026
3.12900, 0.00054012239, 0.044118106, 4.34991e-05, 2.5147579, 0.00057599309, 0.581026
3.13000, 0.00054041335, 0.043601528, 4.30994e-05, 2.5160925, 0.00057599309, 0.581026
3.13100, 0.00054074548, 0.043125793, 4.26803e-05, 2.5164383, 0.00057599309, 0.581026
3.13200, 0.00054095821, 0.042782944, 4.23993e-05, 2.5170806, 0.00057599309, 0.581026
3.13300, 0.00054123904, 0.042435922, 4.20613e-05, 2.5168469, 0.00057599309, 0.581026
3.13400, 0.00054150418, 0.041919962, 4.16835e-05, 2.5186017, 0.00057599309, 0.581026
3.13500, 0.00054177525, 0.041493956, 4.13284e-05, 2.5193741, 0.00057599309, 0.581026
3.13600, 0.00054205891, 0.041150559, 4.09896e-05, 2.5190713, 0.00057599309, 0.581026
3.13700, 0.00054232437, 0.040795505, 4.06619e-05, 2.5191548, 0.00057599309, 0.581026
3.13800, 0.00054259158, 0.040463869, 4.03399e-05, 2.5189684, 0.00057599309, 0.581026
3.13900, 0.00054286527, 0.039931402, 3.99496e-05, 2.5209210, 0.00057599309, 0.581026
3.14000, 0.00054305908, 0.039730828, 3.97285e-05, 2.5203526, 0.00057599309, 0.581026
3.14100, 0.00054332924, 0.039468858, 3.94258e-05, 2.5193546, 0.00057599309, 0.581026
3.14200, 0.00054364003, 0.039110743, 3.90594e-05, 2.5188501, 0.00057599309, 0.581026
3.14300, 0.00054386017, 0.038850732, 3.87979e-05, 2.5185611, 0.00057599309, 0.581026
3.14400, 0.00054410927, 0.038476024, 3.84773e-05, 2.5191414, 0.00057599309, 0.581026
3.14500, 0.00054437959, 0.038194530, 3.81674e-05, 2.5183714, 0.00057599309, 0.581026
3.14600, 0.00054460312, 0.037983220, 3.79190e-05, 2.5174334, 0.00057599309, 0.581026
3.14700, 0.00054489920, 0.037549097, 3.75409e-05, 2.5180261, 0.00057599309, 0.581026
3.14800, 0.00054514034, 0.037212573, 3.72377e-05, 2.5183404, 0.00057599309, 0.581026
3.14900, 0.00054537596, 0.037035923, 3.69900e-05, 2.5167902, 0.00057599309, 0.581026
3.15000, 0.00054566616, 0.036567751, 3.66056e-05, 2.5179250, 0.00057599309, 0.581026
3.15100, 0.00054586634, 0.036259953, 3.63448e-05, 2.5185549, 0.00057599309, 0.581026
3.15200, 0.00054616606, 0.035904713, 3.59889e-05, 2.5181496, 0.00057599309, 0.581026
3.15300, 0.00054643476, 0.035714924, 3.57089e-05, 2.5162261, 0.00057599309, 0.581026
3.15400, 0.00054668425, 0.035382867, 3.54004e-05, 2.5163601, 0.00057599309, 0.581026
3.15500, 0.00054694216, 0.035023846, 3.50762e-05, 2.5167186, 0.00057599309, 0.581026
3.15600, 0.00054718852, 0.034710951, 3.47764e-05, 2.5166662, 0.00057599309, 0.581026
3.15700, 0.00054742871, 0.034562927, 3.45341e-05, 2.5145576, 0.00057599309, 0.581026
3.15800, 0.00054768325, 0.034258008, 3.42286e-05, 2.5143111, 0.00057599309, 0.581026
3.15900, 0.00054796623, 0.033892352, 3.38825e-05, 2.5143058, 0.00057599309, 0.581026
3.16000, 0.00054816258, 0.033701845, 3.36619e-05, 2.5134800, 0.00057599309, 0.581026
3.16100, 0.00054843749, 0.033417620, 3.33471e-05, 2.5125611, 0.00057599309, 0.581026
3.16200, 0.00054869808, 0.033132758, 3.30446e-05, 2.5118525, 0.00057599309, 0.581026
3.16300, 0.00054893711, 0.032814555, 3.27486e-05, 2.5119932, 0.00057599309, 0.581026
3.16400, 0.00054921640, 0.032636028, 3.24639e-05, 2.5095012, 0.00057599309, 0.581026
3.16500, 0.00054943842, 0.032399531, 3.22077e-05, 2.5087988, 0.00057599309, 0.581026
3.16600, 0.00054967545, 0.032049887, 3.19029e-05, 2.5094183, 0.00057599309, 0.581026
3.16700, 0.00054994749, 0.031611636, 3.15415e-05, 2.5106680, 0.00057599309, 0.581026
3.16800, 0.00055011195, 0.031509634, 3.13752e-05, 2.5090878, 0.00057599309, 0.581026
3.16900, 0.00055040926, 0.031232189, 3.10447e-05, 2.5075481, 0.00057599309, 0.581026
3.17000, 0.00055063838, 0.030925283, 3.07600e-05, 2.5077140, 0.00057599309, 0.581026
3.17100, 0.00055087356, 0.030626982, 3.04728e-05, 2.5076573, 0.00057599309, 0.581026
3.17200, 0.00055111414, 0.030367000, 3.01935e-05, 2.5069254, 0.00057599309, 0.581026
3.17300, 0.00055129852, 0.030150285, 2.99740e-05, 2.5066121, 0.00057599309, 0.581026
3.17400, 0.00055152062, 0.029868200, 2.97026e-05, 2.5065630, 0.00057599309, 0.581026
3.17500, 0.00055171866, 0.029601559, 2.94564e-05, 2.5067213, 0.00057599309, 0.581026
3.17600, 0.00055194974, 0.029421778, 2.92110e-05, 2.5048931, 0.00057599309, 0.581026
3.17700, 0.00055214117, 0.029212339, 2.89881e-05, 2.5043075, 0.00057599309, 0.581026
3.17800, 0.00055238429, 0.028873663, 2.86810e-05, 2.5047276, 0.00057599309, 0.581026
3.17900, 0.00055257361, 0.028649818, 2.84547e-05, 2.5044296, 0.00057599309, 0.581026
3.18000, 0.00055280232, 0.028373832, 2.81807e-05, 2.5040958, 0.00057599309, 0.581026
3.18100, 0.00055305042, 0.028139658, 2.79030e-05, 2.5027473, 0.00057599309, 0.581026
3.18200, 0.00055322184, 0.027832929, 2.76648e-05, 2.5041502, 0.00057599309, 0.581026
3.18300, 0.00055345083, 0.027507618, 2.73739e-05, 2.5046632, 0.00057599309, 0.581026
3.18400, 0.00055365426, 0.027149886, 2.70941e-05, 2.5062463, 0.00057599309, 0.581026
3.18500, 0.00055383520, 0.026933853, 2.68773e-05, 2.5059965, 0.00057599309, 0.581026
3.18600, 0.00055405778, 0.026646812, 2.66036e-05, 2.5060585, 0.00057599309, 0.581026
3.18700, 0.00055429155, 0.026331754, 2.63119e-05, 2.5063570, 0.00057599309, 0.581026
3.18800, 0.00055445589, 0.026177360, 2.61279e-05, 2.5054300, 0.00057599309, 0.581026
3.18900, 0.00055468445, 0.025801193, 2.58210e-05, 2.5069172, 0.00057599309, 0.581026
3.19000, 0.00055482445, 0.025636630, 2.56541e-05, 2.5066803, 0.00057599309, 0.581026
3.19100, 0.00055506687, 0.025349014, 2.53647e-05, 2.5062878, 0.00057599309, 0.581026
3.19200, 0.00055528759, 0.025141221, 2.51171e-05, 2.5050275, 0.00057599309, 0.581026
3.19300, 0.00055542744, 0.024984241, 2.49523e-05, 2.5046671, 0.00057599309, 0.581026
3.19400, 0.00055563831, 0.024742087, 2.47023e-05, 2.5042036, 0.00057599309, 0.581026
3.19500, 0.00055583951, 0.024458578, 2.44480e-05, 2.5046685, 0.00057599309, 0.581026
3.19600, 0.00055602601, 0.024307001, 2.42467e-05, 2.5030978, 0.00057599309, 0.581026
3.19700, 0.00055622309, 0.024045642, 2.40018e-05, 2.5033066, 0.00057599309, 0.581026
3.19800, 0.00055643574, 0.023733739, 2.37275e-05, 2.5041406, 0.00057599309, 0.581026
3.19900, 0.00055659670, 0.023488848, 2.35185e-05, 2.5048716, 0.00057599309, 0.581026
3.20000, 0.00055681315, 0.023146285, 2.32319e-05, 2.5062206, 0.00057599309, 0.581026
3.20100, 0.00055696884, 0.022965301, 2.30462e-05, 2.5059483, 0.00057599309, 0.581026
3.20200, 0.00055720661, 0.022777649, 2.27914e-05, 2.5037263, 0.00057599309, 0.581026
3.20300, 0.00055742557, 0.022490583, 2.25203e-05, 2.5039384, 0.00057599309, 0.581026
3.20400, 0.00055759818, 0.022248087, 2.23013e-05, 2.5044496, 0.00057599309, 0.581026
3.20500, 0.00055779094, 0.022116411, 2.21004e-05, 2.5022218, 0.00057599309, 0.581026
3.20600, 0.00055801975, 0.021768685, 2.18029e-05, 2.5033648, 0.00057599309, 0.581026
3.20700, 0.00055810451, 0.021523597, 2.16555e-05, 2.5062492, 0.00057599309, 0.581026
3.20800, 0.00055830806, 0.021256063, 2.14017e-05, 2.5066216, 0.00057599309, 0.581026
3.20900, 0.00055849040, 0.021033354, 2.11817e-05, 2.5064671, 0.00057599309, 0.581026
3.21000, 0.00055866410, 0.020842610, 2.09772e-05, 2.5059726, 0.00057599309, 0.581026
3.21100, 0.00055890241, 0.020548824, 2.06886e-05, 2.5058372, 0.00057599309, 0.581026
3.21200, 0.00055903417, 0.020344753, 2.05152e-05, 2.5067308, 0.00057599309, 0.581026
3.21300, 0.00055925378, 0.020185916, 2.02834e-05, 2.5042036, 0.00057599309, 0.581026
3.21400, 0.00055945000, 0.019942300, 2.00459e-05, 2.5040662, 0.00057599309, 0.581026
3.21500, 0.00055964586, 0.019728936, 1.98166e-05, 2.5033681, 0.00057599309, 0.581026
3.21600, 0.00055982604, 0.019586418, 1.96235e-05, 2.5014188, 0.00057599309, 0.581026
3.21700, 0.00056007657, 0.019326001, 1.93342e-05, 2.5001781, 0.00057599309, 0.581026
3.21800, 0.00056020134, 0.019186703, 1.91887e-05, 2.4996541, 0.00057599309, 0.581026
3.21900, 0.00056038054, 0.018920787, 1.89554e-05, 2.5007107, 0.00057599309, 0.581026
3.22000, 0.00056064327, 0.018686203, 1.86655e-05, 2.4983366, 0.00057599309, 0.581026
3.22100, 0.00056077331, 0.018526018, 1.85058e-05, 2.4983780, 0.00057599309, 0.581026
3.22200, 0.00056101928, 0.018247213, 1.82166e-05, 2.4974606, 0.00057599309, 0.581026
3.22300, 0.00056115972, 0.018033629, 1.80321e-05, 2.4984467, 0.00057599309, 0.581026
3.22400, 0.00056132153, 0.017837545, 1.78361e-05, 2.4982927, 0.00057599309, 0.581026
3.22500, 0.00056152622, 0.017662922, 1.76110e-05, 2.4962571, 0.00057599309, 0.581026
3.22600, 0.00056170468, 0.017414823, 1.73866e-05, 2.4967306, 0.00057599309, 0.581026
3.22700, 0.00056188803, 0.017253201, 1.71836e-05, 2.4949639, 0.00057599309, 0.581026
3.22800, 0.00056209391, 0.016956996, 1.69198e-05, 2.4959214, 0.00057599309, 0.581026
3.22900, 0.00056221522, 0.016851209, 1.67870e-05, 2.4945958, 0.00057599309, 0.581026
3.23000, 0.00056242129, 0.016594570, 1.65347e-05, 2.4945734, 0.00057599309, 0.581026
3.23100, 0.00056264806, 0.016286392, 1.62491e-05, 2.4952462, 0.00057599309, 0.581026
3.23200, 0.00056278830, 0.016087539, 1.60697e-05, 2.4959219, 0.00057599309, 0.581026
3.23300, 0.00056297064, 0.015822286, 1.58351e-05, 2.4969490, 0.00057599309, 0.581026
