time(s), Phieff(Wb), Thetaeff(rad), Phipl(Wb), DelTheta(rad), Phiext(Wb), Thetaext(rad)
3.00000, 0.00050057951, 0.072091281, 8.47648e-05, 2.6549299, 0.00057599309, 0.581026
3.00100, 0.00050101743, 0.071688816, 8.42842e-05, 2.6544750, 0.00057599309, 0.581026
3.00200, 0.00050170565, 0.071513020, 8.36411e-05, 2.6513712, 0.00057599309, 0.581026
3.00300, 0.00050259447, 0.071191132, 8.27885e-05, 2.6477850, 0.00057599309, 0.581026
3.00400, 0.00050345281, 0.070984699, 8.19919e-05, 2.6437056, 0.00057599309, 0.581026
3.00500, 0.00050413352, 0.071045175, 8.14176e-05, 2.6392176, 0.00057599309, 0.581026
3.00600, 0.00050483248, 0.071047701, 8.08147e-05, 2.6348579, 0.00057599309, 0.581026
3.00700, 0.00050543585, 0.071062811, 8.02986e-05, 2.6309769, 0.00057599309, 0.581026
3.00800, 0.00050603356, 0.071204536, 7.98218e-05, 2.6263855, 0.00057599309, 0.581026
3.00900, 0.00050665820, 0.071271531, 7.93039e-05, 2.6219757, 0.00057599309, 0.581026
3.01000, 0.00050716726, 0.071525529, 7.89357e-05, 2.6172445, 0.00057599309, 0.581026
3.01100, 0.00050770008, 0.071714610, 7.85319e-05, 2.6126645, 0.00057599309, 0.581026
3.01200, 0.00050821555, 0.071767829, 7.81081e-05, 2.6089022, 0.00057599309, 0.581026
3.01300, 0.00050865423, 0.072091281, 7.78238e-05, 2.6041248, 0.00057599309, 0.581026
3.01400, 0.00050905744, 0.072198778, 7.75122e-05, 2.6007559, 0.00057599309, 0.581026
3.01500, 0.00050948063, 0.072340757, 7.71943e-05, 2.5970256, 0.00057599309, 0.581026
3.01600, 0.00050980569, 0.072557323, 7.69805e-05, 2.5935423, 0.00057599309, 0.581026
3.01700, 0.00051015191, 0.072609104, 7.67041e-05, 2.5908077, 0.00057599309, 0.581026
3.01800, 0.00051050861, 0.072721578, 7.64368e-05, 2.5876324, 0.00057599309, 0.581026
3.01900, 0.00051079434, 0.072878912, 7.62419e-05, 2.5847013, 0.00057599309, 0.581026
3.02000, 0.00051111309, 0.072919011, 7.59875e-05, 2.5821631, 0.00057599309, 0.581026
3.02100, 0.00051133324, 0.073003232, 7.58280e-05, 2.5800846, 0.00057599309, 0.581026
3.02200, 0.00051160719, 0.073084906, 7.56232e-05, 2.5776198, 0.00057599309, 0.581026
3.02300, 0.00051188861, 0.073097147, 7.53929e-05, 2.5754764, 0.00057599309, 0.581026
3.02400, 0.00051213812, 0.073132239, 7.51961e-05, 2.5734251, 0.00057599309, 0.581026
3.02500, 0.00051238238, 0.073228434, 7.50215e-05, 2.5710580, 0.00057599309, 0.581026
3.02600, 0.00051263982, 0.073141210, 7.47836e-05, 2.5696166, 0.00057599309, 0.581026
3.02700, 0.00051287925, 0.073273227, 7.46241e-05, 2.5670598, 0.00057599309, 0.581026
3.02800, 0.00051309660, 0.073273227, 7.44446e-05, 2.5654156, 0.00057599309, 0.581026
3.02900, 0.00051334432, 0.073239021, 7.42305e-05, 2.5637224, 0.00057599309, 0.581026
3.03000, 0.00051352462, 0.073516265, 7.41634e-05, 2.5607593, 0.00057599309, 0.581026
3.03100, 0.00051378314, 0.073392004, 7.39148e-05, 2.5594719, 0.00057599309, 0.581026
3.03200, 0.00051396321, 0.073478922, 7.37925e-05, 2.5575841, 0.00057599309, 0.581026
3.03300, 0.00051417416, 0.073510587, 7.36290e-05, 2.5557625, 0.00057599309, 0.581026
3.03400, 0.00051443029, 0.073539793, 7.34283e-05, 2.5535886, 0.00057599309, 0.581026
3.03500, 0.00051460683, 0.073490292, 7.32697e-05, 2.5524781, 0.00057599309, 0.581026
3.03600, 0.00051484168, 0.073504902, 7.30822e-05, 2.5505431, 0.00057599309, 0.581026
3.03700, 0.00051507161, 0.073357850, 7.28508e-05, 2.5495660, 0.00057599309, 0.581026
3.03800, 0.00051525590, 0.073393628, 7.27115e-05, 2.5478885, 0.00057599309, 0.581026
3.03900, 0.00051551863, 0.073264271, 7.24589e-05, 2.5465329, 0.00057599309, 0.581026
3.04000, 0.00051577525, 0.073088989, 7.21976e-05, 2.5454838, 0.00057599309, 0.581026
3.04100, 0.00051595338, 0.073053062, 7.20421e-05, 2.5442522, 0.00057599309, 0.581026
3.04200, 0.00051622012, 0.072787993, 7.17456e-05, 2.5436328, 0.00057599309, 0.581026
3.04300, 0.00051647631, 0.072758481, 7.15290e-05, 2.5417116, 0.00057599309, 0.581026
3.04400, 0.00051668229, 0.072535940, 7.12948e-05, 2.5413263, 0.00057599309, 0.581026
3.04500, 0.00051695630, 0.072434708, 7.10422e-05, 2.5396636, 0.00057599309, 0.581026
3.04600, 0.00051715563, 0.072292916, 7.08378e-05, 2.5388506, 0.00057599309, 0.581026
3.04700, 0.00051738413, 0.072139263, 7.06058e-05, 2.5378692, 0.00057599309, 0.581026
3.04800, 0.00051768757, 0.072026707, 7.03262e-05, 2.5360029, 0.00057599309, 0.581026
3.04900, 0.00051789457, 0.071886599, 7.01162e-05, 2.5350998, 0.00057599309, 0.581026
3.05000, 0.00051815766, 0.071784452, 6.98730e-05, 2.5334828, 0.00057599309, 0.581026
3.05100, 0.00051848161, 0.071541376, 6.95374e-05, 2.5321882, 0.00057599309, 0.581026
3.05200, 0.00051871690, 0.071536370, 6.93462e-05, 2.5302131, 0.00057599309, 0.581026
3.05300, 0.00051897847, 0.071211241, 6.90358e-05, 2.5299261, 0.00057599309, 0.581026
3.05400, 0.00051926511, 0.071002342, 6.87407e-05, 2.5287225, 0.00057599309, 0.581026
3.05500, 0.00051950139, 0.070824847, 6.84956e-05, 2.5277608, 0.00057599309, 0.581026
3.05600, 0.00051978934, 0.070523508, 6.81712e-05, 2.5270903, 0.00057599309, 0.581026
3.05700, 0.00052006196, 0.070270985, 6.78739e-05, 2.5262559, 0.00057599309, 0.581026
3.05800, 0.00052033022, 0.069993697, 6.75723e-05, 2.5256097, 0.00057599309, 0.581026
3.05900, 0.00052060300, 0.069726430, 6.72707e-05, 2.5248468, 0.00057599309, 0.581026
3.06000, 0.00052087946, 0.069458127, 6.69653e-05, 2.5240629, 0.00057599309, 0.581026
3.06100, 0.00052113446, 0.069158614, 6.66679e-05, 2.5236514, 0.00057599309, 0.581026
3.06200, 0.00052141069, 0.068860397, 6.63533e-05, 2.5230501, 0.00057599309, 0.581026
3.06300, 0.00052168750, 0.068656519, 6.60681e-05, 2.5218332, 0.00057599309, 0.581026
3.06400, 0.00052197721, 0.068370074, 6.57461e-05, 2.5210292, 0.00057599309, 0.581026
3.06500, 0.00052223989, 0.068051755, 6.54364e-05, 2.5206578, 0.00057599309, 0.581026
3.06600, 0.00052251928, 0.067824349, 6.51417e-05, 2.5195482, 0.00057599309, 0.581026
3.06700, 0.00052277468, 0.067509644, 6.48384e-05, 2.5192249, 0.00057599309, 0.581026
3.06800, 0.00052308736, 0.067209445, 6.44942e-05, 2.5182655, 0.00057599309, 0.581026
3.06900, 0.00052334496, 0.066922165, 6.41977e-05, 2.5177376, 0.00057599309, 0.581026
3.07000, 0.00052367191, 0.066550344, 6.38197e-05, 2.5170977, 0.00057599309, 0.581026
3.07100, 0.00052390972, 0.066326790, 6.35591e-05, 2.5163286, 0.00057599309, 0.581026
3.07200, 0.00052418348, 0.065844811, 6.31884e-05, 2.5169265, 0.00057599309, 0.581026
3.07300, 0.00052448905, 0.065553375, 6.28524e-05, 2.5159538, 0.00057599309, 0.581026
3.07400, 0.00052470030, 0.065202124, 6.25725e-05, 2.5162904, 0.00057599309, 0.581026
3.07500, 0.00052503173, 0.064854488, 6.21982e-05, 2.5154359, 0.00057599309, 0.581026
3.07600, 0.00052532189, 0.064460583, 6.18419e-05, 2.5152977, 0.00057599309, 0.581026
3.07700, 0.00052556336, 0.064060539, 6.15226e-05, 2.5156777, 0.00057599309, 0.581026
3.07800, 0.00052584797, 0.063748799, 6.11965e-05, 2.5150359, 0.00057599309, 0.581026
3.07900, 0.00052611681, 0.063405439, 6.08733e-05, 2.5147579, 0.00057599309, 0.581026
3.08000, 0.00052636764, 0.063109368, 6.05786e-05, 2.5143464, 0.00057599309, 0.581026
3.08100, 0.00052665808, 0.062680736, 6.02110e-05, 2.5144513, 0.00057599309, 0.581026
3.08200, 0.00052689824, 0.062477726, 5.99549e-05, 2.5134742, 0.00057599309, 0.581026
3.08300, 0.00052716759, 0.062126391, 5.96279e-05, 2.5132597, 0.00057599309, 0.581026
3.08400, 0.00052747027, 0.061785609, 5.92780e-05, 2.5126226, 0.00057599309, 0.581026
3.08500, 0.00052777564, 0.061453614, 5.89291e-05, 2.5118816, 0.00057599309, 0.581026
3.08600, 0.00052805463, 0.061111037, 5.85974e-05, 2.5114930, 0.00057599309, 0.581026
3.08700, 0.00052839122, 0.060796946, 5.82286e-05, 2.5103033, 0.00057599309, 0.581026
3.08800, 0.00052863530, 0.060401302, 5.79080e-05, 2.5106537, 0.00057599309, 0.581026
3.08900, 0.00052893958, 0.059984162, 5.75322e-05, 2.5105460, 0.00057599309, 0.581026
3.09000, 0.00052926553, 0.059584130, 5.71443e-05, 2.5100901, 0.00057599309, 0.581026
3.09100, 0.00052951994, 0.059258938, 5.68371e-05, 2.5098360, 0.00057599309, 0.581026
3.09200, 0.00052986522, 0.058723114, 5.63911e-05, 2.5101769, 0.00057599309, 0.581026
3.09300, 0.00053015088, 0.058364533, 5.60482e-05, 2.5098445, 0.00057599309, 0.581026
3.09400, 0.00053047593, 0.058030460, 5.56822e-05, 2.5088842, 0.00057599309, 0.581026
3.09500, 0.00053079600, 0.057683088, 5.53152e-05, 2.5080884, 0.00057599309, 0.581026
3.09600, 0.00053109098, 0.057268042, 5.49470e-05, 2.5080745, 0.00057599309, 0.581026
3.09700, 0.00053136986, 0.056877237, 5.45996e-05, 2.5080464, 0.00057599309, 0.581026
3.09800, 0.00053169561, 0.056567080, 5.42401e-05, 2.5068777, 0.00057599309, 0.581026
3.09900, 0.00053196969, 0.056173526, 5.38953e-05, 2.5069301, 0.00057599309, 0.581026
3.10000, 0.00053226958, 0.055776130, 5.35282e-05, 2.5067380, 0.00057599309, 0.581026
3.10100, 0.00053263673, 0.055354346, 5.30998e-05, 2.5059741, 0.00057599309, 0.581026
3.10200, 0.00053290082, 0.055050783, 5.27918e-05, 2.5054157, 0.00057599309, 0.581026
3.10300, 0.00053323262, 0.054656144, 5.23998e-05, 2.5048354, 0.00057599309, 0.581026
3.10400, 0.00053355366, 0.054176144, 5.19893e-05, 2.5050685, 0.00057599309, 0.581026
3.10500, 0.00053382361, 0.053775091, 5.16449e-05, 2.5052502, 0.00057599309, 0.581026
3.10600, 0.00053413639, 0.053369913, 5.12651e-05, 2.5049656, 0.00057599309, 0.581026
3.10700, 0.00053443172, 0.052969519, 5.09000e-05, 2.5048664, 0.00057599309, 0.581026
3.10800, 0.00053474753, 0.052511595, 5.05007e-05, 2.5049970, 0.00057599309, 0.581026
3.10900, 0.00053510520, 0.052055378, 5.00680e-05, 2.5046294, 0.00057599309, 0.581026
3.11000, 0.00053536263, 0.051742852, 4.97621e-05, 2.5042145, 0.00057599309, 0.581026
3.11100, 0.00053569130, 0.051296078, 4.93551e-05, 2.5041263, 0.00057599309, 0.581026
3.11200, 0.00053602609, 0.050814878, 4.89332e-05, 2.5042393, 0.00057599309, 0.581026
3.11300, 0.00053625689, 0.050452154, 4.86319e-05, 2.5046089, 0.00057599309, 0.581026
3.11400, 0.00053660347, 0.050065368, 4.82301e-05, 2.5037663, 0.00057599309, 0.581026
3.11500, 0.00053691607, 0.049715172, 4.78670e-05, 2.5030167, 0.00057599309, 0.581026
3.11600, 0.00053718622, 0.049332283, 4.75270e-05, 2.5031011, 0.00057599309, 0.581026
3.11700, 0.00053748263, 0.048886675, 4.71463e-05, 2.5034163, 0.00057599309, 0.581026
3.11800, 0.00053782401, 0.048546407, 4.67631e-05, 2.5022018, 0.00057599309, 0.581026
3.11900, 0.00053808693, 0.048269257, 4.64634e-05, 2.5013874, 0.00057599309, 0.581026
3.12000, 0.00053841569, 0.047668867, 4.60069e-05, 2.5027397, 0.00057599309, 0.581026
3.12100, 0.00053870464, 0.047340009, 4.56690e-05, 2.5020888, 0.00057599309, 0.581026
3.12200, 0.00053897750, 0.046895824, 4.53077e-05, 2.5027211, 0.00057599309, 0.581026
3.12300, 0.00053934613, 0.046401158, 4.48527e-05, 2.5026014, 0.00057599309, 0.581026
3.12400, 0.00053959750, 0.045933630, 4.45006e-05, 2.5037911, 0.00057599309, 0.581026
3.12500, 0.00053989792, 0.045412745, 4.40918e-05, 2.5048759, 0.00057599309, 0.581026
3.12600, 0.00054024533, 0.045010515, 4.36829e-05, 2.5041764, 0.00057599309, 0.581026
3.12700, 0.00054050743, 0.044596635, 4.33392e-05, 2.5047453, 0.00057599309, 0.581026
3.12800, 0.00054080881, 0.044103239, 4.29384e-05, 2.5055935, 0.00057599309, 0.581026
3.12900, 0.00054110650, 0.043646630, 4.25525e-05, 2.5061319, 0.00057599309, 0.581026
3.13000, 0.00054139645, 0.043317538, 4.22137e-05, 2.5054691, 0.00057599309, 0.581026
3.13100, 0.00054168025, 0.042891506, 4.18483e-05, 2.5059159, 0.00057599309, 0.581026
3.13200, 0.00054193887, 0.042435922, 4.14942e-05, 2.5070312, 0.00057599309, 0.581026
3.13300, 0.00054223271, 0.042064782, 4.11374e-05, 2.5068066, 0.00057599309, 0.581026
3.13400, 0.00054248798, 0.041688915, 4.08116e-05, 2.5071442, 0.00057599309, 0.581026
3.13500, 0.00054279793, 0.041321170, 4.04439e-05, 2.5066168, 0.00057599309, 0.581026
3.13600, 0.00054308510, 0.040919542, 4.00833e-05, 2.5068061, 0.00057599309, 0.581026
3.13700, 0.00054340198, 0.040478598, 3.96859e-05, 2.5070055, 0.00057599309, 0.581026
3.13800, 0.00054364545, 0.040240765, 3.94126e-05, 2.5060446, 0.00057599309, 0.581026
3.13900, 0.00054395516, 0.039762329, 3.90093e-05, 2.5067680, 0.00057599309, 0.581026
3.14000, 0.00054428158, 0.039305378, 3.85988e-05, 2.5070322, 0.00057599309, 0.581026
3.14100, 0.00054451275, 0.039016116, 3.83198e-05, 2.5068033, 0.00057599309, 0.581026
3.14200, 0.00054485319, 0.038692348, 3.79402e-05, 2.5053256, 0.00057599309, 0.581026
3.14300, 0.00054511199, 0.038336314, 3.76170e-05, 2.5054538, 0.00057599309, 0.581026
3.14400, 0.00054538178, 0.037994206, 3.72886e-05, 2.5052774, 0.00057599309, 0.581026
3.14500, 0.00054569087, 0.037622064, 3.69196e-05, 2.5048049, 0.00057599309, 0.581026
3.14600, 0.00054591489, 0.037298989, 3.66349e-05, 2.5051091, 0.00057599309, 0.581026
3.14700, 0.00054623031, 0.037060063, 3.63027e-05, 2.5029371, 0.00057599309, 0.581026
3.14800, 0.00054652221, 0.036645923, 3.59340e-05, 2.5032408, 0.00057599309, 0.581026
3.14900, 0.00054677717, 0.036428910, 3.56575e-05, 2.5017545, 0.00057599309, 0.581026
3.15000, 0.00054705023, 0.036108371, 3.53339e-05, 2.5012081, 0.00057599309, 0.581026
3.15100, 0.00054735913, 0.035829917, 3.49945e-05, 2.4995363, 0.00057599309, 0.581026
3.15200, 0.00054759305, 0.035577781, 3.47239e-05, 2.4987872, 0.00057599309, 0.581026
3.15300, 0.00054790198, 0.035180099, 3.43462e-05, 2.4985931, 0.00057599309, 0.581026
3.15400, 0.00054815862, 0.034914736, 3.40533e-05, 2.4975927, 0.00057599309, 0.581026
3.15500, 0.00054840322, 0.034623247, 3.37609e-05, 2.4971621, 0.00057599309, 0.581026
3.15600, 0.00054869951, 0.034296270, 3.34167e-05, 2.4962256, 0.00057599309, 0.581026
3.15700, 0.00054897006, 0.033867717, 3.30586e-05, 2.4971654, 0.00057599309, 0.581026
3.15800, 0.00054921268, 0.033673532, 3.28003e-05, 2.4954078, 0.00057599309, 0.581026
3.15900, 0.00054952311, 0.033330090, 3.24378e-05, 2.4944680, 0.00057599309, 0.581026
3.16000, 0.00054975649, 0.033111159, 3.21794e-05, 2.4931533, 0.00057599309, 0.581026
3.16100, 0.00055003231, 0.032823637, 3.18630e-05, 2.4920456, 0.00057599309, 0.581026
3.16200, 0.00055032274, 0.032568373, 3.15456e-05, 2.4901831, 0.00057599309, 0.581026
3.16300, 0.00055053909, 0.032414246, 3.13216e-05, 2.4882400, 0.00057599309, 0.581026
3.16400, 0.00055083721, 0.032163151, 3.09996e-05, 2.4861033, 0.00057599309, 0.581026
3.16500, 0.00055108656, 0.031885780, 3.07092e-05, 2.4852064, 0.00057599309, 0.581026
3.16600, 0.00055132763, 0.031660628, 3.04411e-05, 2.4837701, 0.00057599309, 0.581026
3.16700, 0.00055159348, 0.031445242, 3.01576e-05, 2.4816244, 0.00057599309, 0.581026
3.16800, 0.00055184704, 0.031192081, 2.98711e-05, 2.4802625, 0.00057599309, 0.581026
3.16900, 0.00055209916, 0.030956110, 2.95916e-05, 2.4786460, 0.00057599309, 0.581026
3.17000, 0.00055236741, 0.030652275, 2.92761e-05, 2.4777162, 0.00057599309, 0.581026
3.17100, 0.00055259197, 0.030508017, 2.90493e-05, 2.4752300, 0.00057599309, 0.581026
3.17200, 0.00055283075, 0.030164123, 2.87437e-05, 2.4754951, 0.00057599309, 0.581026
3.17300, 0.00055310964, 0.029818263, 2.84059e-05, 2.4749286, 0.00057599309, 0.581026
3.17400, 0.00055331840, 0.029518874, 2.81393e-05, 2.4751422, 0.00057599309, 0.581026
3.17500, 0.00055358642, 0.029189883, 2.78159e-05, 2.4745309, 0.00057599309, 0.581026
3.17600, 0.00055386338, 0.028923173, 2.75058e-05, 2.4727357, 0.00057599309, 0.581026
3.17700, 0.00055407377, 0.028658140, 2.72499e-05, 2.4723280, 0.00057599309, 0.581026
3.17800, 0.00055433175, 0.028378034, 2.69507e-05, 2.4711111, 0.00057599309, 0.581026
3.17900, 0.00055458216, 0.028107863, 2.66610e-05, 2.4698722, 0.00057599309, 0.581026
3.18000, 0.00055475406, 0.027916335, 2.64593e-05, 2.4691489, 0.00057599309, 0.581026
3.18100, 0.00055503978, 0.027568230, 2.61156e-05, 2.4683483, 0.00057599309, 0.581026
3.18200, 0.00055526471, 0.027333699, 2.58569e-05, 2.4671075, 0.00057599309, 0.581026
3.18300, 0.00055548066, 0.027114732, 2.56115e-05, 2.4657457, 0.00057599309, 0.581026
3.18400, 0.00055576469, 0.026871810, 2.53044e-05, 2.4631193, 0.00057599309, 0.581026
3.18500, 0.00055594457, 0.026550442, 2.50530e-05, 2.4643638, 0.00057599309, 0.581026
3.18600, 0.00055620863, 0.026392808, 2.47903e-05, 2.4606741, 0.00057599309, 0.581026
3.18700, 0.00055646845, 0.026083827, 2.44798e-05, 2.4597080, 0.00057599309, 0.581026
3.18800, 0.00055667786, 0.025865804, 2.42401e-05, 2.4583557, 0.00057599309, 0.581026
3.18900, 0.00055690217, 0.025485042, 2.39324e-05, 2.4596126, 0.00057599309, 0.581026
3.19000, 0.00055716187, 0.025198061, 2.36302e-05, 2.4581664, 0.00057599309, 0.581026
3.19100, 0.00055736209, 0.024934087, 2.33817e-05, 2.4578817, 0.00057599309, 0.581026
3.19200, 0.00055763112, 0.024614066, 2.30597e-05, 2.4568312, 0.00057599309, 0.581026
3.19300, 0.00055786018, 0.024348658, 2.27874e-05, 2.4558132, 0.00057599309, 0.581026
3.19400, 0.00055805623, 0.024129784, 2.25584e-05, 2.4546950, 0.00057599309, 0.581026
3.19500, 0.00055829889, 0.023911398, 2.22923e-05, 2.4522932, 0.00057599309, 0.581026
3.19600, 0.00055850583, 0.023559799, 2.20091e-05, 2.4534552, 0.00057599309, 0.581026
3.19700, 0.00055873549, 0.023394760, 2.17710e-05, 2.4503176, 0.00057599309, 0.581026
3.19800, 0.00055899097, 0.023133405, 2.14799e-05, 2.4483030, 0.00057599309, 0.581026
3.19900, 0.00055916967, 0.022926334, 2.12677e-05, 2.4473751, 0.00057599309, 0.581026
3.20000, 0.00055940696, 0.022630621, 2.09788e-05, 2.4465473, 0.00057599309, 0.581026
3.20100, 0.00055965839, 0.022461409, 2.07239e-05, 2.4425428, 0.00057599309, 0.581026
3.20200, 0.00055979108, 0.022325652, 2.05720e-05, 2.4414518, 0.00057599309, 0.581026
3.20300, 0.00056005553, 0.022040814, 2.02665e-05, 2.4394057, 0.00057599309, 0.581026
3.20400, 0.00056025531, 0.021834305, 2.00386e-05, 2.4376447, 0.00057599309, 0.581026
3.20500, 0.00056044069, 0.021628581, 1.98212e-05, 2.4363506, 0.00057599309, 0.581026
3.20600, 0.00056069128, 0.021379098, 1.95380e-05, 2.4338873, 0.00057599309, 0.581026
3.20700, 0.00056085355, 0.021033354, 1.92910e-05, 2.4363215, 0.00057599309, 0.581026
3.20800, 0.00056107486, 0.020842610, 1.90516e-05, 2.4334018, 0.00057599309, 0.581026
3.20900, 0.00056131655, 0.020583605, 1.87715e-05, 2.4313595, 0.00057599309, 0.581026
3.21000, 0.00056149075, 0.020400345, 1.85716e-05, 2.4297245, 0.00057599309, 0.581026
3.21100, 0.00056170778, 0.020094164, 1.82941e-05, 2.4295437, 0.00057599309, 0.581026
3.21200, 0.00056193569, 0.019864434, 1.80358e-05, 2.4271066, 0.00057599309, 0.581026
3.21300, 0.00056210296, 0.019710800, 1.78520e-05, 2.4248874, 0.00057599309, 0.581026
3.21400, 0.00056232291, 0.019381441, 1.75654e-05, 2.4250019, 0.00057599309, 0.581026
3.21500, 0.00056253275, 0.019115115, 1.73079e-05, 2.4240024, 0.00057599309, 0.581026
3.21600, 0.00056269782, 0.019018199, 1.71457e-05, 2.4203508, 0.00057599309, 0.581026
3.21700, 0.00056290566, 0.018743534, 1.68889e-05, 2.4194014, 0.00057599309, 0.581026
3.21800, 0.00056309810, 0.018484144, 1.66458e-05, 2.4188850, 0.00057599309, 0.581026
3.21900, 0.00056327471, 0.018253746, 1.64277e-05, 2.4180353, 0.00057599309, 0.581026
3.22000, 0.00056350420, 0.018060053, 1.61806e-05, 2.4142182, 0.00057599309, 0.581026
3.22100, 0.00056366479, 0.017827518, 1.59737e-05, 2.4140155, 0.00057599309, 0.581026
3.22200, 0.00056385468, 0.017561389, 1.57331e-05, 2.4134667, 0.00057599309, 0.581026
3.22300, 0.00056405382, 0.017229000, 1.54587e-05, 2.4145792, 0.00057599309, 0.581026
3.22400, 0.00056422982, 0.017030654, 1.52532e-05, 2.4127009, 0.00057599309, 0.581026
3.22500, 0.00056443359, 0.016769655, 1.50026e-05, 2.4114726, 0.00057599309, 0.581026
3.22600, 0.00056465720, 0.016399456, 1.46950e-05, 2.4127171, 0.00057599309, 0.581026
3.22700, 0.00056478894, 0.016194634, 1.45214e-05, 2.4128535, 0.00057599309, 0.581026
3.22800, 0.00056502233, 0.016020708, 1.42793e-05, 2.4076545, 0.00057599309, 0.581026
3.22900, 0.00056518505, 0.015769456, 1.40619e-05, 2.4080064, 0.00057599309, 0.581026
3.23000, 0.00056534958, 0.015564002, 1.38615e-05, 2.4067214, 0.00057599309, 0.581026
3.23100, 0.00056557141, 0.015398440, 1.36332e-05, 2.4013307, 0.00057599309, 0.581026
3.23200, 0.00056573970, 0.015187969, 1.34270e-05, 2.3999946, 0.00057599309, 0.581026
3.23300, 0.00056590886, 0.014986478, 1.32251e-05, 2.3981431, 0.00057599309, 0.581026
