time(s), Phieff(Wb), Thetaeff(rad), Phipl(Wb), DelTheta(rad), Phiext(Wb), Thetaext(rad)
3.00000, 0.00053149001, 0.030337539, 1.64966e-05, 1.3057599, 0.00052775240, 0.576639
3.00100, 0.00053180589, 0.030164123, 1.64858e-05, 1.2858024, 0.00052775240, 0.576639
3.00200, 0.00053200777, 0.030195726, 1.65556e-05, 1.2742922, 0.00052775240, 0.576639
3.00300, 0.00053211838, 0.030347362, 1.66634e-05, 1.2692168, 0.00052775240, 0.576639
3.00400, 0.00053239348, 0.030412119, 1.67751e-05, 1.2540350, 0.00052775240, 0.576639
3.00500, 0.00053271546, 0.030623088, 1.69779e-05, 1.2378070, 0.00052775240, 0.576639
3.00600, 0.00053325011, 0.030628929, 1.71532e-05, 1.2082074, 0.00052775240, 0.576639
3.00700, 0.00053388306, 0.030644495, 1.73838e-05, 1.1740668, 0.00052775240, 0.576639
3.00800, 0.00053445915, 0.030842282, 1.76987e-05, 1.1459351, 0.00052775240, 0.576639
3.00900, 0.00053511056, 0.030861605, 1.79744e-05, 1.1128380, 0.00052775240, 0.576639
3.01000, 0.00053572289, 0.031056089, 1.83367e-05, 1.0850275, 0.00052775240, 0.576639
3.01100, 0.00053628922, 0.031456616, 1.87862e-05, 1.0631874, 0.00052775240, 0.576639
3.01200, 0.00053685070, 0.031870820, 1.92485e-05, 1.0427947, 0.00052775240, 0.576639
3.01300, 0.00053740288, 0.032309245, 1.97273e-05, 1.0241788, 0.00052775240, 0.576639
3.01400, 0.00053791378, 0.032807287, 2.02178e-05, 1.0089994, 0.00052775240, 0.576639
3.01500, 0.00053841089, 0.033141751, 2.06315e-05, 0.99287986, 0.00052775240, 0.576639
3.01600, 0.00053886200, 0.033655822, 2.11077e-05, 0.98175496, 0.00052775240, 0.576639
3.01700, 0.00053932914, 0.034043286, 2.15376e-05, 0.96874566, 0.00052775240, 0.576639
3.01800, 0.00053989577, 0.034299746, 2.19698e-05, 0.95072836, 0.00052775240, 0.576639
3.01900, 0.00054031230, 0.034654226, 2.23646e-05, 0.94023086, 0.00052775240, 0.576639
3.02000, 0.00054082034, 0.034822408, 2.27345e-05, 0.92426706, 0.00052775240, 0.576639
3.02100, 0.00054128461, 0.034931809, 2.30581e-05, 0.90950056, 0.00052775240, 0.576639
3.02200, 0.00054172322, 0.035076573, 2.33859e-05, 0.89651006, 0.00052775240, 0.576639
3.02300, 0.00054226668, 0.034976151, 2.36804e-05, 0.87696886, 0.00052775240, 0.576639
3.02400, 0.00054275374, 0.035001710, 2.39982e-05, 0.86147666, 0.00052775240, 0.576639
3.02500, 0.00054325527, 0.035005115, 2.43233e-05, 0.84566976, 0.00052775240, 0.576639
3.02600, 0.00054368324, 0.034865186, 2.45467e-05, 0.83040786, 0.00052775240, 0.576639
3.02700, 0.00054409058, 0.034796719, 2.47914e-05, 0.81712526, 0.00052775240, 0.576639
3.02800, 0.00054448859, 0.034726404, 2.50319e-05, 0.80429856, 0.00052775240, 0.576639
3.02900, 0.00054489356, 0.034512870, 2.52253e-05, 0.78939936, 0.00052775240, 0.576639
3.03000, 0.00054528082, 0.034325808, 2.54215e-05, 0.77560446, 0.00052775240, 0.576639
3.03100, 0.00054566382, 0.034130733, 2.56172e-05, 0.76205326, 0.00052775240, 0.576639
3.03200, 0.00054606984, 0.033864196, 2.58065e-05, 0.74697916, 0.00052775240, 0.576639
3.03300, 0.00054635314, 0.033606187, 2.59156e-05, 0.73551006, 0.00052775240, 0.576639
3.03400, 0.00054675039, 0.033220805, 2.60643e-05, 0.71917606, 0.00052775240, 0.576639
3.03500, 0.00054715995, 0.032827269, 2.62265e-05, 0.70261236, 0.00052775240, 0.576639
3.03600, 0.00054740525, 0.032504242, 2.62950e-05, 0.69137926, 0.00052775240, 0.576639
3.03700, 0.00054774305, 0.031938087, 2.63525e-05, 0.67409296, 0.00052775240, 0.576639
3.03800, 0.00054801654, 0.031335093, 2.63552e-05, 0.65783526, 0.00052775240, 0.576639
3.03900, 0.00054824278, 0.030778430, 2.63428e-05, 0.64343786, 0.00052775240, 0.576639
3.04000, 0.00054853649, 0.030084966, 2.63441e-05, 0.62521266, 0.00052775240, 0.576639
3.04100, 0.00054872249, 0.029442035, 2.62827e-05, 0.61023396, 0.00052775240, 0.576639
3.04200, 0.00054897185, 0.028714249, 2.62512e-05, 0.59231736, 0.00052775240, 0.576639
3.04300, 0.00054919691, 0.027927009, 2.61894e-05, 0.57385916, 0.00052775240, 0.576639
3.04400, 0.00054934990, 0.027290046, 2.61221e-05, 0.55952096, 0.00052775240, 0.576639
3.04500, 0.00054947407, 0.026516741, 2.59948e-05, 0.54325626, 0.00052775240, 0.576639
3.04600, 0.00054962605, 0.025808124, 2.59166e-05, 0.52745176, 0.00052775240, 0.576639
3.04700, 0.00054968796, 0.025264213, 2.58133e-05, 0.51631426, 0.00052775240, 0.576639
3.04800, 0.00054976320, 0.024551017, 2.56777e-05, 0.50171946, 0.00052775240, 0.576639
3.04900, 0.00054980476, 0.023868980, 2.55269e-05, 0.48823716, 0.00052775240, 0.576639
3.05000, 0.00054974022, 0.023297735, 2.53172e-05, 0.47873036, 0.00052775240, 0.576639
3.05100, 0.00054976521, 0.022643786, 2.51657e-05, 0.46570726, 0.00052775240, 0.576639
3.05200, 0.00054967675, 0.022043519, 2.49325e-05, 0.45575906, 0.00052775240, 0.576639
3.05300, 0.00054959650, 0.021520827, 2.47282e-05, 0.44698566, 0.00052775240, 0.576639
3.05400, 0.00054951087, 0.020836890, 2.44811e-05, 0.43494956, 0.00052775240, 0.576639
3.05500, 0.00054930301, 0.020397423, 2.41877e-05, 0.42993236, 0.00052775240, 0.576639
3.05600, 0.00054912620, 0.019780234, 2.38792e-05, 0.42049336, 0.00052775240, 0.576639
3.05700, 0.00054893664, 0.019143159, 2.35570e-05, 0.41067146, 0.00052775240, 0.576639
3.05800, 0.00054868449, 0.018708520, 2.32276e-05, 0.40609496, 0.00052775240, 0.576639
3.05900, 0.00054845732, 0.018109493, 2.28826e-05, 0.39727236, 0.00052775240, 0.576639
3.06000, 0.00054819220, 0.017524011, 2.25085e-05, 0.38925646, 0.00052775240, 0.576639
3.06100, 0.00054783900, 0.017121414, 2.20965e-05, 0.38678476, 0.00052775240, 0.576639
3.06200, 0.00054750788, 0.016590979, 2.16751e-05, 0.38072556, 0.00052775240, 0.576639
3.06300, 0.00054712950, 0.016143022, 2.12303e-05, 0.37739436, 0.00052775240, 0.576639
3.06400, 0.00054673289, 0.015754329, 2.07821e-05, 0.37572716, 0.00052775240, 0.576639
3.06500, 0.00054635308, 0.015258449, 2.03249e-05, 0.37088936, 0.00052775240, 0.576639
3.06600, 0.00054589490, 0.014934682, 1.98349e-05, 0.37194346, 0.00052775240, 0.576639
3.06700, 0.00054535307, 0.014542387, 1.92519e-05, 0.37284226, 0.00052775240, 0.576639
3.06800, 0.00054487394, 0.014168691, 1.87321e-05, 0.37316986, 0.00052775240, 0.576639
3.06900, 0.00054426409, 0.013905415, 1.81163e-05, 0.37938476, 0.00052775240, 0.576639
3.07000, 0.00054374387, 0.013500880, 1.75497e-05, 0.37970226, 0.00052775240, 0.576639
3.07100, 0.00054315462, 0.013115696, 1.69271e-05, 0.38264246, 0.00052775240, 0.576639
3.07200, 0.00054245276, 0.012830834, 1.62246e-05, 0.39171316, 0.00052775240, 0.576639
3.07300, 0.00054185980, 0.012367194, 1.55797e-05, 0.39278596, 0.00052775240, 0.576639
3.07400, 0.00054122661, 0.011905525, 1.49017e-05, 0.39559096, 0.00052775240, 0.576639
3.07500, 0.00054059452, 0.011683159, 1.42790e-05, 0.40666746, 0.00052775240, 0.576639
3.07600, 0.00054000595, 0.011182658, 1.36308e-05, 0.40735126, 0.00052775240, 0.576639
3.07700, 0.00053939092, 0.010863625, 1.30011e-05, 0.41570756, 0.00052775240, 0.576639
3.07800, 0.00053876469, 0.010580102, 1.23728e-05, 0.42700076, 0.00052775240, 0.576639
3.07900, 0.00053816972, 0.010213180, 1.17542e-05, 0.43503426, 0.00052775240, 0.576639
3.08000, 0.00053751272, 0.0099590635, 1.11091e-05, 0.45122286, 0.00052775240, 0.576639
3.08100, 0.00053695610, 0.0095994528, 1.05276e-05, 0.46005936, 0.00052775240, 0.576639
3.08200, 0.00053642053, 0.0092193726, 9.96052e-06, 0.46803926, 0.00052775240, 0.576639
3.08300, 0.00053577953, 0.0089503732, 9.33212e-06, 0.48802396, 0.00052775240, 0.576639
3.08400, 0.00053522231, 0.0085484348, 8.74180e-06, 0.49880716, 0.00052775240, 0.576639
3.08500, 0.00053468810, 0.0081632324, 8.17812e-06, 0.51085756, 0.00052775240, 0.576639
3.08600, 0.00053410185, 0.0078581637, 7.59793e-06, 0.53368706, 0.00052775240, 0.576639
3.08700, 0.00053355874, 0.0073323688, 6.99027e-06, 0.54255366, 0.00052775240, 0.576639
3.08800, 0.00053304361, 0.0068707396, 6.42623e-06, 0.55522776, 0.00052775240, 0.576639
3.08900, 0.00053252521, 0.0064223483, 5.86396e-06, 0.57146566, 0.00052775240, 0.576639
3.09000, 0.00053204448, 0.0057671038, 5.26681e-06, 0.56939526, 0.00052775240, 0.576639
3.09100, 0.00053152608, 0.0052476097, 4.68890e-06, 0.58639236, 0.00052775240, 0.576639
3.09200, 0.00053106033, 0.0046834336, 4.13097e-06, 0.59289116, 0.00052775240, 0.576639
3.09300, 0.00053064755, 0.0040706405, 3.60937e-06, 0.59031886, 0.00052775240, 0.576639
3.09400, 0.00053014635, 0.0035379357, 3.03443e-06, 0.61181706, 0.00052775240, 0.576639
3.09500, 0.00052972293, 0.0028680039, 2.48663e-06, 0.60573626, 0.00052775240, 0.576639
3.09600, 0.00052931246, 0.0022640675, 1.95707e-06, 0.59769456, 0.00052775240, 0.576639
3.09700, 0.00052887277, 0.0018269814, 1.47535e-06, 0.65765306, 0.00052775240, 0.576639
3.09800, 0.00052852164, 0.0011451211, 9.85474e-07, 0.62412256, 0.00052775240, 0.576639
3.09900, 0.00052815740, 0.00048828125, 4.92185e-07, 0.55296676, 0.00052775240, 0.576639
3.10000, 0.00052775240, -0.0000000, 0.00000, -2.1991150, 0.00052775240, 0.576639
3.10100, 0.00052739252, 0.00059801998, 4.91169e-07, 3.8380892, 0.00052775240, 0.576639
3.10200, 0.00052700668, 0.0012448779, 9.97179e-07, 3.8152845, 0.00052775240, 0.576639
3.10300, 0.00052663912, 0.0017605233, 1.45329e-06, 3.7871592, 0.00052775240, 0.576639
3.10400, 0.00052638415, 0.0024657000, 1.88105e-06, 3.8449781, 0.00052775240, 0.576639
3.10500, 0.00052599585, 0.0029296887, 2.34032e-06, 3.8103330, 0.00052775240, 0.576639
3.10600, 0.00052566932, 0.0036211926, 2.81880e-06, 3.8273285, 0.00052775240, 0.576639
3.10700, 0.00052539623, 0.0042846538, 3.25838e-06, 3.8502762, 0.00052775240, 0.576639
3.10800, 0.00052497384, 0.0047591813, 3.74463e-06, 3.8222592, 0.00052775240, 0.576639
3.10900, 0.00052468291, 0.0054482277, 4.20280e-06, 3.8391597, 0.00052775240, 0.576639
3.11000, 0.00052435565, 0.0061859763, 4.70410e-06, 3.8508117, 0.00052775240, 0.576639
3.11100, 0.00052400117, 0.0066323741, 5.12092e-06, 3.8353674, 0.00052775240, 0.576639
3.11200, 0.00052370592, 0.0073567154, 5.59468e-06, 3.8485115, 0.00052775240, 0.576639
3.11300, 0.00052334143, 0.0079186121, 6.06383e-06, 3.8421991, 0.00052775240, 0.576639
3.11400, 0.00052300926, 0.0085204989, 6.52425e-06, 3.8425105, 0.00052775240, 0.576639
3.11500, 0.00052273895, 0.0092387479, 6.97761e-06, 3.8544476, 0.00052775240, 0.576639
3.11600, 0.00052244408, 0.0097656641, 7.37955e-06, 3.8530037, 0.00052775240, 0.576639
3.11700, 0.00052208854, 0.010329243, 7.84140e-06, 3.8484318, 0.00052775240, 0.576639
3.11800, 0.00052179596, 0.011086299, 8.32467e-06, 3.8578193, 0.00052775240, 0.576639
3.11900, 0.00052147974, 0.011560065, 8.72534e-06, 3.8527253, 0.00052775240, 0.576639
3.12000, 0.00052120556, 0.012246108, 9.17042e-06, 3.8595421, 0.00052775240, 0.576639
3.12100, 0.00052099785, 0.012914183, 9.56561e-06, 3.8702552, 0.00052775240, 0.576639
3.12200, 0.00052073273, 0.013456658, 9.95259e-06, 3.8711398, 0.00052775240, 0.576639
3.12300, 0.00052050947, 0.014240029, 1.04004e-05, 3.8832324, 0.00052775240, 0.576639
3.12400, 0.00052024375, 0.014870686, 1.08200e-05, 3.8863266, 0.00052775240, 0.576639
3.12500, 0.00051995354, 0.015525657, 1.12665e-05, 3.8884199, 0.00052775240, 0.576639
3.12600, 0.00051968966, 0.016249750, 1.17232e-05, 3.8942173, 0.00052775240, 0.576639
3.12700, 0.00051948330, 0.016868886, 1.20985e-05, 3.8997872, 0.00052775240, 0.576639
3.12800, 0.00051921905, 0.017544409, 1.25368e-05, 3.9033029, 0.00052775240, 0.576639
3.12900, 0.00051903632, 0.018211244, 1.29147e-05, 3.9108188, 0.00052775240, 0.576639
3.13000, 0.00051879044, 0.018813368, 1.33126e-05, 3.9128230, 0.00052775240, 0.576639
3.13100, 0.00051861324, 0.019406030, 1.36588e-05, 3.9180472, 0.00052775240, 0.576639
3.13200, 0.00051842483, 0.020120844, 1.40633e-05, 3.9255316, 0.00052775240, 0.576639
3.13300, 0.00051817200, 0.020621218, 1.44240e-05, 3.9240248, 0.00052775240, 0.576639
3.13400, 0.00051798483, 0.021337233, 1.48272e-05, 3.9309213, 0.00052775240, 0.576639
3.13500, 0.00051781648, 0.021929650, 1.51707e-05, 3.9356902, 0.00052775240, 0.576639
3.13600, 0.00051753166, 0.022501182, 1.55807e-05, 3.9340227, 0.00052775240, 0.576639
3.13700, 0.00051737208, 0.023146285, 1.59390e-05, 3.9399583, 0.00052775240, 0.576639
3.13800, 0.00051716306, 0.023836492, 1.63466e-05, 3.9441569, 0.00052775240, 0.576639
3.13900, 0.00051698050, 0.024348658, 1.66668e-05, 3.9458597, 0.00052775240, 0.576639
3.14000, 0.00051683181, 0.025117498, 1.70692e-05, 3.9539983, 0.00052775240, 0.576639
3.14100, 0.00051659993, 0.025773454, 1.74785e-05, 3.9559038, 0.00052775240, 0.576639
3.14200, 0.00051649301, 0.026392808, 1.77934e-05, 3.9624403, 0.00052775240, 0.576639
3.14300, 0.00051628217, 0.027088339, 1.82069e-05, 3.9656942, 0.00052775240, 0.576639
3.14400, 0.00051603988, 0.027663210, 1.85904e-05, 3.9653618, 0.00052775240, 0.576639
3.14500, 0.00051586383, 0.028346507, 1.89765e-05, 3.9695752, 0.00052775240, 0.576639
3.14600, 0.00051572529, 0.028954072, 1.93084e-05, 3.9738772, 0.00052775240, 0.576639
3.14700, 0.00051546359, 0.029466322, 1.96767e-05, 3.9715259, 0.00052775240, 0.576639
3.14800, 0.00051530807, 0.030124571, 2.00409e-05, 3.9757869, 0.00052775240, 0.576639
3.14900, 0.00051516833, 0.030617248, 2.03267e-05, 3.9779093, 0.00052775240, 0.576639
3.15000, 0.00051497729, 0.031107875, 2.06441e-05, 3.9780028, 0.00052775240, 0.576639
3.15100, 0.00051483697, 0.031786535, 2.10080e-05, 3.9827983, 0.00052775240, 0.576639
3.15200, 0.00051462368, 0.032434471, 2.14030e-05, 3.9842274, 0.00052775240, 0.576639
3.15300, 0.00051445708, 0.033022817, 2.17441e-05, 3.9864180, 0.00052775240, 0.576639
3.15400, 0.00051433739, 0.033531599, 2.20261e-05, 3.9891875, 0.00052775240, 0.576639
3.15500, 0.00051415958, 0.034137722, 2.23814e-05, 3.9910610, 0.00052775240, 0.576639
3.15600, 0.00051400590, 0.034724686, 2.27159e-05, 3.9935091, 0.00052775240, 0.576639
3.15700, 0.00051389850, 0.035279937, 2.30099e-05, 3.9970777, 0.00052775240, 0.576639
3.15800, 0.00051372115, 0.035783298, 2.33239e-05, 3.9974568, 0.00052775240, 0.576639
3.15900, 0.00051352457, 0.036440361, 2.37125e-05, 3.9990943, 0.00052775240, 0.576639
3.16000, 0.00051346800, 0.036979541, 2.39708e-05, 4.0039489, 0.00052775240, 0.576639
3.16100, 0.00051330411, 0.037402738, 2.42422e-05, 4.0036299, 0.00052775240, 0.576639
3.16200, 0.00051327424, 0.037981652, 2.45016e-05, 4.0096681, 0.00052775240, 0.576639
3.16300, 0.00051317213, 0.038602874, 2.48215e-05, 4.0136945, 0.00052775240, 0.576639
3.16400, 0.00051294354, 0.039176237, 2.51939e-05, 4.0129287, 0.00052775240, 0.576639
3.16500, 0.00051287900, 0.039723322, 2.54615e-05, 4.0171535, 0.00052775240, 0.576639
3.16600, 0.00051270726, 0.040202223, 2.57608e-05, 4.0170658, 0.00052775240, 0.576639
3.16700, 0.00051263939, 0.040671092, 2.59970e-05, 4.0201509, 0.00052775240, 0.576639
3.16800, 0.00051258264, 0.041195448, 2.62521e-05, 4.0241697, 0.00052775240, 0.576639
3.16900, 0.00051239475, 0.041663162, 2.65548e-05, 4.0233419, 0.00052775240, 0.576639
3.17000, 0.00051237777, 0.042211935, 2.67986e-05, 4.0287297, 0.00052775240, 0.576639
3.17100, 0.00051227474, 0.042821947, 2.71153e-05, 4.0319665, 0.00052775240, 0.576639
3.17200, 0.00051217016, 0.043263827, 2.73613e-05, 4.0333431, 0.00052775240, 0.576639
3.17300, 0.00051206863, 0.043940708, 2.77073e-05, 4.0371955, 0.00052775240, 0.576639
3.17400, 0.00051194121, 0.044545799, 2.80358e-05, 4.0394275, 0.00052775240, 0.576639
3.17500, 0.00051182797, 0.045027729, 2.83049e-05, 4.0408361, 0.00052775240, 0.576639
3.17600, 0.00051176235, 0.045632791, 2.86005e-05, 4.0447891, 0.00052775240, 0.576639
3.17700, 0.00051165828, 0.046198972, 2.89006e-05, 4.0471656, 0.00052775240, 0.576639
3.17800, 0.00051152031, 0.046691947, 2.91874e-05, 4.0478194, 0.00052775240, 0.576639
3.17900, 0.00051149314, 0.047153227, 2.94016e-05, 4.0513489, 0.00052775240, 0.576639
3.18000, 0.00051134740, 0.047559917, 2.96554e-05, 4.0509307, 0.00052775240, 0.576639
3.18100, 0.00051127563, 0.047946997, 2.98604e-05, 4.0524132, 0.00052775240, 0.576639
3.18200, 0.00051125149, 0.048729077, 3.02134e-05, 4.0587819, 0.00052775240, 0.576639
3.18300, 0.00051108878, 0.049046200, 3.04368e-05, 4.0570295, 0.00052775240, 0.576639
3.18400, 0.00051110244, 0.049625136, 3.06816e-05, 4.0624836, 0.00052775240, 0.576639
3.18500, 0.00051103031, 0.050177202, 3.09594e-05, 4.0652320, 0.00052775240, 0.576639
3.18600, 0.00051087302, 0.050606746, 3.12296e-05, 4.0645878, 0.00052775240, 0.576639
3.18700, 0.00051089503, 0.051179696, 3.14684e-05, 4.0699999, 0.00052775240, 0.576639
3.18800, 0.00051078928, 0.051605526, 3.17091e-05, 4.0706561, 0.00052775240, 0.576639
3.18900, 0.00051065527, 0.052084006, 3.19876e-05, 4.0709746, 0.00052775240, 0.576639
3.19000, 0.00051057485, 0.052697506, 3.22979e-05, 4.0737984, 0.00052775240, 0.576639
3.19100, 0.00051049545, 0.053186350, 3.25537e-05, 4.0756099, 0.00052775240, 0.576639
3.19200, 0.00051043204, 0.053584013, 3.27605e-05, 4.0770767, 0.00052775240, 0.576639
3.19300, 0.00051033385, 0.054194853, 3.30792e-05, 4.0792773, 0.00052775240, 0.576639
3.19400, 0.00051024139, 0.054577529, 3.32947e-05, 4.0798309, 0.00052775240, 0.576639
3.19500, 0.00051017052, 0.055127639, 3.35736e-05, 4.0822113, 0.00052775240, 0.576639
3.19600, 0.00051017854, -0.055603724, 3.37798e-05, -2.1971835, 0.00052775240, 0.576639
3.19700, 0.00051003472, -0.055957600, 3.40079e-05, -2.1982231, 0.00052775240, 0.576639
3.19800, 0.00050995150, -0.056550208, 3.43115e-05, -2.1959583, 0.00052775240, 0.576639
3.19900, 0.00050989904, -0.056935925, 3.45087e-05, -2.1944605, 0.00052775240, 0.576639
3.20000, 0.00050981215, -0.057179455, 3.46594e-05, -2.1948807, 0.00052775240, 0.576639
3.20100, 0.00050976017, -0.057623092, 3.48823e-05, -2.1929775, 0.00052775240, 0.576639
3.20200, 0.00050967883, -0.058085930, 3.51273e-05, -2.1917096, 0.00052775240, 0.576639
3.20300, 0.00050965713, -0.058543079, 3.53415e-05, -2.1890177, 0.00052775240, 0.576639
3.20400, 0.00050959329, -0.059047211, 3.55969e-05, -2.1870791, 0.00052775240, 0.576639
3.20500, 0.00050947607, -0.059388626, 3.58064e-05, -2.1875832, 0.00052775240, 0.576639
3.20600, 0.00050945084, -0.059950348, 3.60687e-05, -2.1843614, 0.00052775240, 0.576639
3.20700, 0.00050948559, -0.060383525, 3.62458e-05, -2.1805916, 0.00052775240, 0.576639
3.20800, 0.00050933915, -0.060693856, 3.64546e-05, -2.1820522, 0.00052775240, 0.576639
3.20900, 0.00050935106, -0.061203681, 3.66771e-05, -2.1783830, 0.00052775240, 0.576639
3.21000, 0.00050931295, -0.061698668, 3.69173e-05, -2.1760495, 0.00052775240, 0.576639
3.21100, 0.00050930808, -0.062100463, 3.71004e-05, -2.1735570, 0.00052775240, 0.576639
3.21200, 0.00050924862, -0.062497772, 3.73071e-05, -2.1724160, 0.00052775240, 0.576639
3.21300, 0.00050926061, -0.062810011, 3.74419e-05, -2.1701471, 0.00052775240, 0.576639
3.21400, 0.00050916199, -0.063274547, 3.76974e-05, -2.1695352, 0.00052775240, 0.576639
3.21500, 0.00050910807, -0.063653298, 3.78930e-05, -2.1684318, 0.00052775240, 0.576639
3.21600, 0.00050904094, -0.063979484, 3.80716e-05, -2.1679669, 0.00052775240, 0.576639
3.21700, 0.00050893432, -0.064293817, 3.82624e-05, -2.1685062, 0.00052775240, 0.576639
3.21800, 0.00050894923, -0.064782716, 3.84759e-05, -2.1651725, 0.00052775240, 0.576639
3.21900, 0.00050883729, -0.064925268, 3.85921e-05, -2.1668805, 0.00052775240, 0.576639
3.22000, 0.00050880772, -0.065261558, 3.87581e-05, -2.1655148, 0.00052775240, 0.576639
3.22100, 0.00050881472, -0.065870173, 3.90295e-05, -2.1617187, 0.00052775240, 0.576639
3.22200, 0.00050871297, -0.066219687, 3.92344e-05, -2.1619582, 0.00052775240, 0.576639
3.22300, 0.00050874517, -0.066846356, 3.95040e-05, -2.1575556, 0.00052775240, 0.576639
3.22400, 0.00050869544, -0.067284845, 3.97257e-05, -2.1561378, 0.00052775240, 0.576639
3.22500, 0.00050860993, -0.067537032, 3.98785e-05, -2.1566102, 0.00052775240, 0.576639
3.22600, 0.00050858936, -0.068017557, 4.01060e-05, -2.1543302, 0.00052775240, 0.576639
3.22700, 0.00050856614, -0.068325564, 4.02567e-05, -2.1531035, 0.00052775240, 0.576639
3.22800, 0.00050851520, -0.068705156, 4.04526e-05, -2.1520984, 0.00052775240, 0.576639
3.22900, 0.00050849966, -0.069182761, 4.06771e-05, -2.1497871, 0.00052775240, 0.576639
3.23000, 0.00050849072, -0.069621973, 4.08815e-05, -2.1475680, 0.00052775240, 0.576639
3.23100, 0.00050845013, -0.069863178, 4.10090e-05, -2.1471478, 0.00052775240, 0.576639
