time(s), Phieff(Wb), Thetaeff(rad), Phipl(Wb), DelTheta(rad), Phiext(Wb), Thetaext(rad)
3.00000, 0.00047385891, 0.0081851082, 0.000110447, 3.1766955, 0.000584222, 0.00000
3.00100, 0.00047445623, 0.0082214382, 0.000109851, 3.1770894, 0.000584222, 0.00000
3.00200, 0.00047526584, 0.0081632324, 0.000109041, 3.1771704, 0.000584222, 0.00000
3.00300, 0.00047588371, 0.0078808861, 0.000108418, 3.1761986, 0.000584222, 0.00000
3.00400, 0.00047647064, 0.0075011365, 0.000107824, 3.1747395, 0.000584222, 0.00000
3.00500, 0.00047715583, 0.0071679442, 0.000107133, 3.1735083, 0.000584222, 0.00000
3.00600, 0.00047777232, 0.0067922142, 0.000106510, 3.1720225, 0.000584222, 0.00000
3.00700, 0.00047836873, 0.0062625860, 0.000105905, 3.1698686, 0.000584222, 0.00000
3.00800, 0.00047902993, 0.0058796932, 0.000105238, 3.1683432, 0.000584222, 0.00000
3.00900, 0.00047965164, 0.0054482277, 0.000104610, 3.1665332, 0.000584222, 0.00000
3.01000, 0.00048029814, 0.0049555185, 0.000103957, 3.1644732, 0.000584222, 0.00000
3.01100, 0.00048091516, 0.0044618365, 0.000103334, 3.1623842, 0.000584222, 0.00000
3.01200, 0.00048138777, 0.0039967569, 0.000102856, 3.1602618, 0.000584222, 0.00000
3.01300, 0.00048198520, 0.0035379357, 0.000102254, 3.1582357, 0.000584222, 0.00000
3.01400, 0.00048249329, 0.0030881630, 0.000101742, 3.1562664, 0.000584222, 0.00000
3.01500, 0.00048291054, 0.0026067093, 0.000101321, 3.1540481, 0.000584222, 0.00000
3.01600, 0.00048339174, 0.0022107877, 0.000100837, 3.1521041, 0.000584222, 0.00000
3.01700, 0.00048382579, 0.0018269814, 0.000100401, 3.1504666, 0.000584222, 0.00000
3.01800, 0.00048419465, 0.0013810680, 0.000100030, 3.1481950, 0.000584222, 0.00000
3.01900, 0.00048462934, 0.00097656250, 9.95941e-05, 3.1464721, 0.000584222, 0.00000
3.02000, 0.00048500196, 0.00059801998, 9.92205e-05, 3.1443211, 0.000584222, 0.00000
3.02100, 0.00048538911, 0.0000000, 9.88330e-05, 3.1427194, 0.000584222, 0.00000
3.02200, 0.00048577153, 0.0000000, 9.84506e-05, 3.1402303, 0.000584222, 0.00000
3.02300, 0.00048607960, 0.00059801998, 9.81430e-05, 3.1384937, 0.000584222, 0.00000
3.02400, 0.00048645887, 0.0010918301, 9.77647e-05, 3.1364457, 0.000584222, 0.00000
3.02500, 0.00048684658, 0.0013810680, 9.73783e-05, 3.1345908, 0.000584222, 0.00000
3.02600, 0.00048713884, 0.0018593199, 9.70882e-05, 3.1322977, 0.000584222, 0.00000
3.02700, 0.00048747902, 0.0022640675, 9.67505e-05, 3.1302230, 0.000584222, 0.00000
3.02800, 0.00048781639, 0.0025837421, 9.64154e-05, 3.1285769, 0.000584222, 0.00000
3.02900, 0.00048812444, 0.0030297067, 9.61113e-05, 3.1261408, 0.000584222, 0.00000
3.03000, 0.00048851923, 0.0033296358, 9.57195e-05, 3.1245062, 0.000584222, 0.00000
3.03100, 0.00048881534, 0.0037186414, 9.54274e-05, 3.1225368, 0.000584222, 0.00000
3.03200, 0.00048913830, 0.0040706405, 9.51085e-05, 3.1207081, 0.000584222, 0.00000
3.03300, 0.00048954408, 0.0043536546, 9.47066e-05, 3.1190788, 0.000584222, 0.00000
3.03400, 0.00048984354, 0.0047214595, 9.44122e-05, 3.1171223, 0.000584222, 0.00000
3.03500, 0.00049015637, 0.0050152978, 9.41041e-05, 3.1154086, 0.000584222, 0.00000
3.03600, 0.00049055694, 0.0052815755, 9.37078e-05, 3.1139218, 0.000584222, 0.00000
3.03700, 0.00049086427, 0.0055242786, 9.34045e-05, 3.1125933, 0.000584222, 0.00000
3.03800, 0.00049123627, 0.0057671038, 9.30370e-05, 3.1111571, 0.000584222, 0.00000
3.03900, 0.00049157132, 0.0059301639, 9.27051e-05, 3.1101700, 0.000584222, 0.00000
3.04000, 0.00049185746, 0.0061859763, 9.24241e-05, 3.1086537, 0.000584222, 0.00000
3.04100, 0.00049227878, 0.0063570500, 9.20065e-05, 3.1075551, 0.000584222, 0.00000
3.04200, 0.00049258078, 0.0064777941, 9.17070e-05, 3.1068207, 0.000584222, 0.00000
3.04300, 0.00049286185, 0.0067305053, 9.14316e-05, 3.1052853, 0.000584222, 0.00000
3.04400, 0.00049327781, 0.0069569508, 9.10208e-05, 3.1038977, 0.000584222, 0.00000
3.04500, 0.00049357991, 0.0071512940, 9.07235e-05, 3.1026570, 0.000584222, 0.00000
3.04600, 0.00049393212, 0.0073160925, 9.03752e-05, 3.1016442, 0.000584222, 0.00000
3.04700, 0.00049422225, 0.0075090784, 9.00901e-05, 3.1004025, 0.000584222, 0.00000
3.04800, 0.00049455422, 0.0076272152, 8.97616e-05, 3.0995347, 0.000584222, 0.00000
3.04900, 0.00049489917, 0.0078201452, 8.94216e-05, 3.0983369, 0.000584222, 0.00000
3.05000, 0.00049526833, 0.0078277634, 8.90534e-05, 3.0980202, 0.000584222, 0.00000
3.05100, 0.00049558045, 0.0078581637, 8.87422e-05, 3.0977298, 0.000584222, 0.00000
3.05200, 0.00049595215, 0.0079786023, 8.83742e-05, 3.0968205, 0.000584222, 0.00000
3.05300, 0.00049636040, 0.0079035433, 8.79646e-05, 3.0969912, 0.000584222, 0.00000
3.05400, 0.00049666104, 0.0078429785, 8.76628e-05, 3.0971538, 0.000584222, 0.00000
3.05500, 0.00049706220, 0.0078429785, 8.72622e-05, 3.0969106, 0.000584222, 0.00000
3.05600, 0.00049740677, 0.0078581637, 8.69186e-05, 3.0965940, 0.000584222, 0.00000
3.05700, 0.00049775994, 0.0078429785, 8.65653e-05, 3.0965149, 0.000584222, 0.00000
3.05800, 0.00049814791, 0.0078201452, 8.61773e-05, 3.0964033, 0.000584222, 0.00000
3.05900, 0.00049848639, 0.0078201452, 8.58395e-05, 3.0961467, 0.000584222, 0.00000
3.06000, 0.00049885253, 0.0079035433, 8.54762e-05, 3.0954148, 0.000584222, 0.00000
3.06100, 0.00049924723, 0.0079035433, 8.50820e-05, 3.0951859, 0.000584222, 0.00000
3.06200, 0.00049959089, 0.0079411613, 8.47399e-05, 3.0947382, 0.000584222, 0.00000
3.06300, 0.00049996130, 0.0079411613, 8.43701e-05, 3.0944840, 0.000584222, 0.00000
3.06400, 0.00050033516, 0.0080158683, 8.39988e-05, 3.0938160, 0.000584222, 0.00000
3.06500, 0.00050067558, 0.0080381455, 8.36596e-05, 3.0934416, 0.000584222, 0.00000
3.06600, 0.00050110710, 0.0079786023, 8.32268e-05, 3.0935713, 0.000584222, 0.00000
3.06700, 0.00050144718, 0.0080307266, 8.28889e-05, 3.0929906, 0.000584222, 0.00000
3.06800, 0.00050178150, 0.0080529628, 8.25556e-05, 3.0926592, 0.000584222, 0.00000
3.06900, 0.00050222130, 0.0079935296, 8.21149e-05, 3.0926944, 0.000584222, 0.00000
3.07000, 0.00050261087, 0.0079411613, 8.17247e-05, 3.0926978, 0.000584222, 0.00000
3.07100, 0.00050294763, 0.0080677522, 8.13919e-05, 3.0917331, 0.000584222, 0.00000
3.07200, 0.00050334649, 0.0079935296, 8.09914e-05, 3.0919420, 0.000584222, 0.00000
3.07300, 0.00050368815, 0.0079636471, 8.06497e-05, 3.0918252, 0.000584222, 0.00000
3.07400, 0.00050408204, 0.0079636471, 8.02564e-05, 3.0915591, 0.000584222, 0.00000
3.07500, 0.00050446131, 0.0079186121, 7.98763e-05, 3.0915977, 0.000584222, 0.00000
3.07600, 0.00050477094, 0.0078959977, 7.95665e-05, 3.0915233, 0.000584222, 0.00000
3.07700, 0.00050522225, 0.0078808861, 7.91158e-05, 3.0912258, 0.000584222, 0.00000
3.07800, 0.00050555003, 0.0079935296, 7.87918e-05, 3.0902921, 0.000584222, 0.00000
3.07900, 0.00050586138, 0.0079786023, 7.84804e-05, 3.0901844, 0.000584222, 0.00000
3.08000, 0.00050627420, 0.0080009829, 7.80693e-05, 3.0896556, 0.000584222, 0.00000
3.08100, 0.00050664522, 0.0080158683, 7.76993e-05, 3.0892951, 0.000584222, 0.00000
3.08200, 0.00050694286, 0.0080529628, 7.74034e-05, 3.0888135, 0.000584222, 0.00000
3.08300, 0.00050735447, 0.0080529628, 7.69923e-05, 3.0885388, 0.000584222, 0.00000
3.08400, 0.00050770537, 0.0079336520, 7.66385e-05, 3.0890233, 0.000584222, 0.00000
3.08500, 0.00050808734, 0.0079411613, 7.62575e-05, 3.0886599, 0.000584222, 0.00000
3.08600, 0.00050849341, 0.0079561593, 7.58527e-05, 3.0882250, 0.000584222, 0.00000
3.08700, 0.00050882515, 0.0078657446, 7.55187e-05, 3.0885789, 0.000584222, 0.00000
3.08800, 0.00050923609, 0.0078048869, 7.51065e-05, 3.0886895, 0.000584222, 0.00000
3.08900, 0.00050961969, 0.0077972459, 7.47233e-05, 3.0884420, 0.000584222, 0.00000
3.09000, 0.00050995233, 0.0078048869, 7.43917e-05, 3.0880849, 0.000584222, 0.00000
3.09100, 0.00051035707, 0.0077589299, 7.39863e-05, 3.0880562, 0.000584222, 0.00000
3.09200, 0.00051074329, 0.0076817241, 7.35985e-05, 3.0882498, 0.000584222, 0.00000
3.09300, 0.00051104320, 0.0078201452, 7.33033e-05, 3.0870845, 0.000584222, 0.00000
3.09400, 0.00051146214, 0.0077589299, 7.28831e-05, 3.0871789, 0.000584222, 0.00000
3.09500, 0.00051178186, 0.0078048869, 7.25658e-05, 3.0865146, 0.000584222, 0.00000
3.09600, 0.00051214236, 0.0077049672, 7.22026e-05, 3.0869538, 0.000584222, 0.00000
3.09700, 0.00051252071, 0.0077049672, 7.18253e-05, 3.0865575, 0.000584222, 0.00000
3.09800, 0.00051282683, 0.0076272152, 7.15171e-05, 3.0868828, 0.000584222, 0.00000
3.09900, 0.00051320818, 0.0076584108, 7.11373e-05, 3.0863692, 0.000584222, 0.00000
3.10000, 0.00051359634, 0.0075801816, 7.07477e-05, 3.0865189, 0.000584222, 0.00000
3.10100, 0.00051393379, 0.0076193968, 7.04118e-05, 3.0860230, 0.000584222, 0.00000
3.10200, 0.00051433446, 0.0074613001, 7.00072e-05, 3.0867359, 0.000584222, 0.00000
3.10300, 0.00051472617, 0.0074613001, 6.96162e-05, 3.0863954, 0.000584222, 0.00000
3.10400, 0.00051502689, 0.0074051688, 6.93142e-05, 3.0865552, 0.000584222, 0.00000
3.10500, 0.00051548047, 0.0072752428, 6.88575e-05, 3.0870802, 0.000584222, 0.00000
3.10600, 0.00051582470, 0.0072506224, 6.85129e-05, 3.0870101, 0.000584222, 0.00000
3.10700, 0.00051616117, 0.0071679442, 6.81745e-05, 3.0873191, 0.000584222, 0.00000
3.10800, 0.00051655900, 0.0071679442, 6.77773e-05, 3.0869872, 0.000584222, 0.00000
3.10900, 0.00051688419, 0.0071928473, 6.74539e-05, 3.0864112, 0.000584222, 0.00000
3.11000, 0.00051723610, 0.0071262452, 6.71003e-05, 3.0866491, 0.000584222, 0.00000
3.11100, 0.00051760456, 0.0070843012, 6.67312e-05, 3.0866338, 0.000584222, 0.00000
3.11200, 0.00051789569, 0.0071094972, 6.64417e-05, 3.0861026, 0.000584222, 0.00000
3.11300, 0.00051827714, 0.0070421067, 6.60587e-05, 3.0862986, 0.000584222, 0.00000
3.11400, 0.00051865536, 0.0070336377, 6.56808e-05, 3.0860411, 0.000584222, 0.00000
3.11500, 0.00051890894, 0.0070166686, 6.54273e-05, 3.0858990, 0.000584222, 0.00000
3.11600, 0.00051934724, 0.0069911378, 6.49888e-05, 3.0857393, 0.000584222, 0.00000
3.11700, 0.00051965550, 0.0069483779, 6.46800e-05, 3.0857217, 0.000584222, 0.00000
3.11800, 0.00052000176, 0.0069569508, 6.43348e-05, 3.0852920, 0.000584222, 0.00000
3.11900, 0.00052040543, 0.0068620592, 6.39286e-05, 3.0857193, 0.000584222, 0.00000
3.12000, 0.00052074666, 0.0068620592, 6.35878e-05, 3.0854446, 0.000584222, 0.00000
3.12100, 0.00052112005, 0.0067481939, 6.32115e-05, 3.0859906, 0.000584222, 0.00000
3.12200, 0.00052151979, 0.0067127701, 6.28118e-05, 3.0857855, 0.000584222, 0.00000
3.12300, 0.00052185180, 0.0066143759, 6.24768e-05, 3.0863854, 0.000584222, 0.00000
3.12400, 0.00052223479, 0.0065418873, 6.20922e-05, 3.0866124, 0.000584222, 0.00000
3.12500, 0.00052259641, 0.0064777941, 6.17295e-05, 3.0867154, 0.000584222, 0.00000
3.12600, 0.00052290259, 0.0065509919, 6.14264e-05, 3.0857584, 0.000584222, 0.00000
3.12700, 0.00052326488, 0.0065418873, 6.10644e-05, 3.0854980, 0.000584222, 0.00000
3.12800, 0.00052362963, 0.0064777941, 6.06985e-05, 3.0856082, 0.000584222, 0.00000
3.12900, 0.00052391984, 0.0064961710, 6.04092e-05, 3.0852172, 0.000584222, 0.00000
3.13000, 0.00052430727, 0.0064501306, 6.00208e-05, 3.0852782, 0.000584222, 0.00000
3.13100, 0.00052461540, 0.0064316224, 5.97130e-05, 3.0850255, 0.000584222, 0.00000
3.13200, 0.00052493567, 0.0062625860, 5.93879e-05, 3.0861589, 0.000584222, 0.00000
3.13300, 0.00052537932, 0.0062339678, 5.89438e-05, 3.0860502, 0.000584222, 0.00000
3.13400, 0.00052567843, 0.0062530614, 5.86460e-05, 3.0855252, 0.000584222, 0.00000
3.13500, 0.00052602894, 0.0062052174, 5.82944e-05, 3.0856420, 0.000584222, 0.00000
3.13600, 0.00052640432, 0.0060790619, 5.79158e-05, 3.0863420, 0.000584222, 0.00000
3.13700, 0.00052674586, 0.0059901671, 5.75724e-05, 3.0866830, 0.000584222, 0.00000
3.13800, 0.00052710397, 0.0059602410, 5.72140e-05, 3.0865790, 0.000584222, 0.00000
3.13900, 0.00052747857, 0.0058999332, 5.68379e-05, 3.0868107, 0.000584222, 0.00000
3.14000, 0.00052778907, 0.0058287857, 5.65257e-05, 3.0871445, 0.000584222, 0.00000
3.14100, 0.00052820749, 0.0057774298, 5.61065e-05, 3.0871441, 0.000584222, 0.00000
3.14200, 0.00052853142, 0.0057671038, 5.57825e-05, 3.0869943, 0.000584222, 0.00000
3.14300, 0.00052881059, 0.0057256129, 5.55029e-05, 3.0869676, 0.000584222, 0.00000
3.14400, 0.00052925181, 0.0057151932, 5.50616e-05, 3.0867488, 0.000584222, 0.00000
3.14500, 0.00052959210, 0.0056417165, 5.47199e-05, 3.0869853, 0.000584222, 0.00000
3.14600, 0.00052992287, 0.0056099319, 5.43886e-05, 3.0869691, 0.000584222, 0.00000
3.14700, 0.00053027730, 0.0055026570, 5.40318e-05, 3.0875045, 0.000584222, 0.00000
3.14800, 0.00053063290, 0.0054700645, 5.36753e-05, 3.0875870, 0.000584222, 0.00000
3.14900, 0.00053096849, 0.0054700645, 5.33403e-05, 3.0872099, 0.000584222, 0.00000
3.15000, 0.00053138246, 0.0054153078, 5.29255e-05, 3.0872351, 0.000584222, 0.00000
3.15100, 0.00053168294, 0.0054153078, 5.26255e-05, 3.0869180, 0.000584222, 0.00000
3.15200, 0.00053207636, 0.0053265258, 5.22302e-05, 3.0872933, 0.000584222, 0.00000
3.15300, 0.00053246426, 0.0052476097, 5.18403e-05, 3.0877158, 0.000584222, 0.00000
3.15400, 0.00053276813, 0.0052248435, 5.15366e-05, 3.0874798, 0.000584222, 0.00000
3.15500, 0.00053318509, 0.0050978116, 5.11162e-05, 3.0883872, 0.000584222, 0.00000
3.15600, 0.00053355602, 0.0050152978, 5.07435e-05, 3.0887686, 0.000584222, 0.00000
3.15700, 0.00053389453, 0.0050033992, 5.04047e-05, 3.0886800, 0.000584222, 0.00000
3.15800, 0.00053426733, 0.0049555185, 5.00315e-05, 3.0885998, 0.000584222, 0.00000
3.15900, 0.00053462061, 0.0048583420, 4.96755e-05, 3.0893437, 0.000584222, 0.00000
3.16000, 0.00053493095, 0.0049193022, 4.93677e-05, 3.0882718, 0.000584222, 0.00000
3.16100, 0.00053532307, 0.0049434761, 4.89766e-05, 3.0876862, 0.000584222, 0.00000
3.16200, 0.00053569868, 0.0049193022, 4.86015e-05, 3.0872790, 0.000584222, 0.00000
3.16300, 0.00053615212, 0.0049555185, 4.81499e-05, 3.0863649, 0.000584222, 0.00000
3.16400, 0.00053662165, 0.0049434761, 4.76804e-05, 3.0860602, 0.000584222, 0.00000
3.16500, 0.00053698975, 0.0050033992, 4.73154e-05, 3.0847589, 0.000584222, 0.00000
3.16600, 0.00053744385, 0.0049795164, 4.68614e-05, 3.0844270, 0.000584222, 0.00000
3.16700, 0.00053788319, 0.0049555185, 4.64224e-05, 3.0840160, 0.000584222, 0.00000
3.16800, 0.00053823231, 0.0050978116, 4.60785e-05, 3.0819952, 0.000584222, 0.00000
3.16900, 0.00053876481, 0.0049795164, 4.55431e-05, 3.0826127, 0.000584222, 0.00000
3.17000, 0.00053909477, 0.0048828172, 4.52102e-05, 3.0834018, 0.000584222, 0.00000
3.17100, 0.00053946302, 0.0047966070, 4.48400e-05, 3.0838324, 0.000584222, 0.00000
3.17200, 0.00053988041, 0.0047966070, 4.44231e-05, 3.0833584, 0.000584222, 0.00000
3.17300, 0.00054020963, 0.0046961429, 4.40917e-05, 3.0839101, 0.000584222, 0.00000
3.17400, 0.00054060207, 0.0047841640, 4.37028e-05, 3.0823571, 0.000584222, 0.00000
3.17500, 0.00054094439, 0.0047340668, 4.33594e-05, 3.0824901, 0.000584222, 0.00000
3.17600, 0.00054125838, 0.0047340668, 4.30461e-05, 3.0820047, 0.000584222, 0.00000
3.17700, 0.00054161682, 0.0046834336, 4.26863e-05, 3.0822312, 0.000584222, 0.00000
3.17800, 0.00054201910, 0.0046322467, 4.22834e-05, 3.0821616, 0.000584222, 0.00000
3.17900, 0.00054232645, 0.0047340668, 4.19801e-05, 3.0804383, 0.000584222, 0.00000
3.18000, 0.00054269563, 0.0046834336, 4.16101e-05, 3.0804474, 0.000584222, 0.00000
3.18100, 0.00054308392, 0.0046579107, 4.12212e-05, 3.0803677, 0.000584222, 0.00000
3.18200, 0.00054335628, 0.0045674569, 4.09464e-05, 3.0810501, 0.000584222, 0.00000
3.18300, 0.00054379001, 0.0045281379, 4.05125e-05, 3.0807730, 0.000584222, 0.00000
3.18400, 0.00054411613, 0.0045017344, 4.01863e-05, 3.0805389, 0.000584222, 0.00000
3.18500, 0.00054448631, 0.0045017344, 3.98169e-05, 3.0799376, 0.000584222, 0.00000
3.18600, 0.00054492165, 0.0044618365, 3.93807e-05, 3.0798976, 0.000584222, 0.00000
3.18700, 0.00054522537, 0.0043536546, 3.90740e-05, 3.0808036, 0.000584222, 0.00000
3.18800, 0.00054567418, 0.0042427150, 3.86220e-05, 3.0816933, 0.000584222, 0.00000
3.18900, 0.00054604106, 0.0041287956, 3.82515e-05, 3.0828749, 0.000584222, 0.00000
3.19000, 0.00054635681, 0.0041287956, 3.79363e-05, 3.0823852, 0.000584222, 0.00000
3.19100, 0.00054678237, 0.0040559713, 3.75098e-05, 3.0824215, 0.000584222, 0.00000
3.19200, 0.00054708169, 0.0039967569, 3.72089e-05, 3.0828392, 0.000584222, 0.00000
3.19300, 0.00054744350, 0.0039967569, 3.68479e-05, 3.0821792, 0.000584222, 0.00000
3.19400, 0.00054778564, 0.0039517637, 3.65051e-05, 3.0821664, 0.000584222, 0.00000
3.19500, 0.00054810285, 0.0039517637, 3.61883e-05, 3.0817124, 0.000584222, 0.00000
3.19600, 0.00054843471, 0.0039967569, 3.58588e-05, 3.0804049, 0.000584222, 0.00000
3.19700, 0.00054884492, 0.0039818157, 3.54482e-05, 3.0801975, 0.000584222, 0.00000
3.19800, 0.00054925908, 0.0040264730, 3.50370e-05, 3.0785414, 0.000584222, 0.00000
3.19900, 0.00054962995, 0.0040264730, 3.46670e-05, 3.0778171, 0.000584222, 0.00000
3.20000, 0.00055013006, 0.0040998212, 3.41711e-05, 3.0755483, 0.000584222, 0.00000
3.20100, 0.00055045684, 0.0039967569, 3.38417e-05, 3.0763065, 0.000584222, 0.00000
3.20200, 0.00055089346, 0.0039517637, 3.34043e-05, 3.0761892, 0.000584222, 0.00000
3.20300, 0.00055127542, 0.0038602047, 3.30187e-05, 3.0773870, 0.000584222, 0.00000
3.20400, 0.00055156126, 0.0036376154, 3.27261e-05, 3.0801799, 0.000584222, 0.00000
3.20500, 0.00055204912, 0.0037186414, 3.22420e-05, 3.0779449, 0.000584222, 0.00000
3.20600, 0.00055241334, 0.0036376154, 3.18756e-05, 3.0785743, 0.000584222, 0.00000
3.20700, 0.00055277430, 0.0036702405, 3.15165e-05, 3.0773150, 0.000584222, 0.00000
3.20800, 0.00055320726, 0.0034870273, 3.10777e-05, 3.0796563, 0.000584222, 0.00000
3.20900, 0.00055356661, 0.0035040791, 3.07204e-05, 3.0782692, 0.000584222, 0.00000
3.21000, 0.00055392509, 0.0034526715, 3.03601e-05, 3.0787765, 0.000584222, 0.00000
3.21100, 0.00055427598, 0.0033296358, 3.00061e-05, 3.0799624, 0.000584222, 0.00000
3.21200, 0.00055454852, 0.0033652480, 2.97347e-05, 3.0790726, 0.000584222, 0.00000
3.21300, 0.00055490471, 0.0032754918, 2.93764e-05, 3.0797664, 0.000584222, 0.00000
3.21400, 0.00055520823, 0.0032754918, 2.90737e-05, 3.0790078, 0.000584222, 0.00000
3.21500, 0.00055549594, 0.0031644255, 2.87820e-05, 3.0808016, 0.000584222, 0.00000
3.21600, 0.00055577647, 0.0031265267, 2.85014e-05, 3.0805217, 0.000584222, 0.00000
3.21700, 0.00055617550, 0.0031832056, 2.81048e-05, 3.0787450, 0.000584222, 0.00000
3.21800, 0.00055648343, 0.0031832056, 2.77974e-05, 3.0780989, 0.000584222, 0.00000
3.21900, 0.00055691809, 0.0032388929, 2.73663e-05, 3.0756642, 0.000584222, 0.00000
3.22000, 0.00055732716, 0.0032754918, 2.69594e-05, 3.0739943, 0.000584222, 0.00000
3.22100, 0.00055761620, 0.0032204373, 2.66692e-05, 3.0742294, 0.000584222, 0.00000
3.22200, 0.00055805698, 0.0031644255, 2.62269e-05, 3.0744602, 0.000584222, 0.00000
3.22300, 0.00055836793, 0.0030881630, 2.59140e-05, 3.0751139, 0.000584222, 0.00000
3.22400, 0.00055873770, 0.0031265267, 2.55466e-05, 3.0732929, 0.000584222, 0.00000
3.22500, 0.00055909008, 0.0030297067, 2.51913e-05, 3.0744249, 0.000584222, 0.00000
3.22600, 0.00055936670, 0.0029901010, 2.49147e-05, 3.0740191, 0.000584222, 0.00000
3.22700, 0.00055969662, 0.0028680039, 2.45804e-05, 3.0761024, 0.000584222, 0.00000
3.22800, 0.00055997288, 0.0028887119, 2.43053e-05, 3.0750262, 0.000584222, 0.00000
3.22900, 0.00056026007, 0.0028261330, 2.40165e-05, 3.0755803, 0.000584222, 0.00000
3.23000, 0.00056060457, 0.0028049632, 2.36710e-05, 3.0756833, 0.000584222, 0.00000
3.23100, 0.00056092897, 0.0028049632, 2.33478e-05, 3.0744855, 0.000584222, 0.00000
3.23200, 0.00056126362, 0.0028887119, 2.30179e-05, 3.0711109, 0.000584222, 0.00000
3.23300, 0.00056165783, 0.0028887119, 2.26249e-05, 3.0697471, 0.000584222, 0.00000
3.23400, 0.00056202058, 0.0029700999, 2.22662e-05, 3.0667721, 0.000584222, 0.00000
3.23500, 0.00056234384, 0.0030297067, 2.19463e-05, 3.0642740, 0.000584222, 0.00000
3.23600, 0.00056274407, 0.0029296887, 2.15433e-05, 3.0651423, 0.000584222, 0.00000
3.23700, 0.00056303800, 0.0028261330, 2.12456e-05, 3.0668270, 0.000584222, 0.00000
3.23800, 0.00056334385, 0.0026966222, 2.09354e-05, 3.0689699, 0.000584222, 0.00000
