time(s), Phieff(Wb), Thetaeff(rad), Phipl(Wb), DelTheta(rad), Phiext(Wb), Thetaext(rad)
3.00000, 0.00023561416, 0.0000000, 0.00000, 2.1991150, 0.00023561416, -0.512136
3.00100, 0.00023566429, -0.00048828125, 1.25709e-07, -1.0447247, 0.00023561416, -0.512136
3.00200, 0.00023594334, -0.00059801998, 3.53907e-07, -0.26014636, 0.00023561416, -0.512136
3.00300, 0.00023615618, -0.0012448779, 6.16133e-07, -0.37997696, 0.00023561416, -0.512136
3.00400, 0.00023646744, -0.0024657000, 1.02968e-06, -0.47907996, 0.00023561416, -0.512136
3.00500, 0.00023687818, -0.0033652480, 1.49175e-06, -0.44533556, 0.00023561416, -0.512136
3.00600, 0.00023722664, -0.0050626132, 2.00873e-06, -0.52528756, 0.00023561416, -0.512136
3.00700, 0.00023773639, -0.0065872860, 2.63263e-06, -0.52034136, 0.00023561416, -0.512136
3.00800, 0.00023825848, -0.0083651813, 3.30377e-06, -0.53085446, 0.00023561416, -0.512136
3.00900, 0.00023869435, -0.010242319, 3.92215e-06, -0.55651976, 0.00023561416, -0.512136
3.01000, 0.00023930811, -0.012020125, 4.66896e-06, -0.54792806, 0.00023561416, -0.512136
3.01100, 0.00023987360, -0.014369205, 5.46005e-06, -0.56698796, 0.00023561416, -0.512136
3.01200, 0.00024045727, -0.016904185, 6.29662e-06, -0.58558486, 0.00023561416, -0.512136
3.01300, 0.00024104195, -0.019202230, 7.09961e-06, -0.59397526, 0.00023561416, -0.512136
3.01400, 0.00024157572, -0.021636847, 7.88569e-06, -0.60832406, 0.00023561416, -0.512136
3.01500, 0.00024208434, -0.024243155, 8.68231e-06, -0.62596076, 0.00023561416, -0.512136
3.01600, 0.00024264624, -0.026329491, 9.43809e-06, -0.62722896, 0.00023561416, -0.512136
3.01700, 0.00024310125, -0.028323364, 1.00998e-05, -0.63386506, 0.00023561416, -0.512136
3.01800, 0.00024366044, -0.030221380, 1.08249e-05, -0.63184426, 0.00023561416, -0.512136
3.01900, 0.00024419066, -0.032033142, 1.15146e-05, -0.63048196, 0.00023561416, -0.512136
3.02000, 0.00024465689, -0.033609737, 1.21195e-05, -0.62934516, 0.00023561416, -0.512136
3.02100, 0.00024518414, -0.034974448, 1.27375e-05, -0.62221046, 0.00023561416, -0.512136
3.02200, 0.00024572759, -0.036557969, 1.34034e-05, -0.61812806, 0.00023561416, -0.512136
3.02300, 0.00024618600, -0.038050655, 1.39904e-05, -0.61720246, 0.00023561416, -0.512136
3.02400, 0.00024675806, -0.039261367, 1.46216e-05, -0.60783766, 0.00023561416, -0.512136
3.02500, 0.00024723862, -0.040455025, 1.51804e-05, -0.60286976, 0.00023561416, -0.512136
3.02600, 0.00024773786, -0.041891504, 1.57925e-05, -0.60059806, 0.00023561416, -0.512136
3.02700, 0.00024828621, -0.043092597, 1.64071e-05, -0.59390706, 0.00023561416, -0.512136
3.02800, 0.00024875727, -0.044120811, 1.69356e-05, -0.58857226, 0.00023561416, -0.512136
3.02900, 0.00024930538, -0.045343105, 1.75557e-05, -0.58314276, 0.00023561416, -0.512136
3.03000, 0.00024983411, -0.046169277, 1.81014e-05, -0.57441686, 0.00023561416, -0.512136
3.03100, 0.00025028068, -0.047253020, 1.86212e-05, -0.57165186, 0.00023561416, -0.512136
3.03200, 0.00025078993, -0.048172805, 1.91678e-05, -0.56543636, 0.00023561416, -0.512136
3.03300, 0.00025131406, -0.048729077, 1.96738e-05, -0.55538386, 0.00023561416, -0.512136
3.03400, 0.00025174727, -0.049717572, 2.01707e-05, -0.55287286, 0.00023561416, -0.512136
3.03500, 0.00025225356, -0.050159372, 2.06487e-05, -0.54303996, 0.00023561416, -0.512136
3.03600, 0.00025274770, -0.050585534, 2.11167e-05, -0.53385206, 0.00023561416, -0.512136
3.03700, 0.00025314812, -0.051297240, 2.15489e-05, -0.53026316, 0.00023561416, -0.512136
3.03800, 0.00025365859, -0.051600903, 2.20161e-05, -0.52017546, 0.00023561416, -0.512136
3.03900, 0.00025409094, -0.051937252, 2.24242e-05, -0.51269696, 0.00023561416, -0.512136
3.04000, 0.00025454538, -0.052613698, 2.28993e-05, -0.50818316, 0.00023561416, -0.512136
3.04100, 0.00025502584, -0.052926719, 2.33472e-05, -0.49991466, 0.00023561416, -0.512136
3.04200, 0.00025540927, -0.053572886, 2.37596e-05, -0.49717616, 0.00023561416, -0.512136
3.04300, 0.00025583040, -0.054076985, 2.41851e-05, -0.49244426, 0.00023561416, -0.512136
3.04400, 0.00025629215, -0.054176144, 2.45921e-05, -0.48344056, 0.00023561416, -0.512136
3.04500, 0.00025663732, -0.054840226, 2.49756e-05, -0.48210666, 0.00023561416, -0.512136
3.04600, 0.00025705482, -0.055118985, 2.53705e-05, -0.47601746, 0.00023561416, -0.512136
3.04700, 0.00025751258, -0.055205472, 2.57760e-05, -0.46766686, 0.00023561416, -0.512136
3.04800, 0.00025781526, -0.055778269, 2.61118e-05, -0.46670336, 0.00023561416, -0.512136
3.04900, 0.00025824926, -0.055825293, 2.64939e-05, -0.45886486, 0.00023561416, -0.512136
3.05000, 0.00025862967, -0.056093846, 2.68589e-05, -0.45407986, 0.00023561416, -0.512136
3.05100, 0.00025898835, -0.056593429, 2.72350e-05, -0.45174736, 0.00023561416, -0.512136
3.05200, 0.00025941050, -0.056366414, 2.75754e-05, -0.44238446, 0.00023561416, -0.512136
3.05300, 0.00025974629, -0.056466836, 2.78827e-05, -0.43741266, 0.00023561416, -0.512136
3.05400, 0.00026010744, -0.056557588, 2.82117e-05, -0.43203616, 0.00023561416, -0.512136
3.05500, 0.00026055202, -0.056385454, 2.85836e-05, -0.42331506, 0.00023561416, -0.512136
3.05600, 0.00026089095, -0.056484789, 2.88961e-05, -0.41866106, 0.00023561416, -0.512136
3.05700, 0.00026128860, -0.056825835, 2.92903e-05, -0.41511226, 0.00023561416, -0.512136
3.05800, 0.00026164076, -0.056700811, 2.95892e-05, -0.40868996, 0.00023561416, -0.512136
3.05900, 0.00026191232, -0.057193015, 2.98896e-05, -0.40843386, 0.00023561416, -0.512136
3.06000, 0.00026231173, -0.057080287, 3.02337e-05, -0.40161846, 0.00023561416, -0.512136
3.06100, 0.00026265121, -0.057330489, 3.05672e-05, -0.39861126, 0.00023561416, -0.512136
3.06200, 0.00026293916, -0.057623092, 3.08594e-05, -0.39671586, 0.00023561416, -0.512136
3.06300, 0.00026332966, -0.057946127, 3.12478e-05, -0.39367506, 0.00023561416, -0.512136
3.06400, 0.00026363974, -0.057934806, 3.15256e-05, -0.38928506, 0.00023561416, -0.512136
3.06500, 0.00026399113, -0.058014017, 3.18518e-05, -0.38510846, 0.00023561416, -0.512136
3.06600, 0.00026433271, -0.058042794, 3.21638e-05, -0.38075806, 0.00023561416, -0.512136
3.06700, 0.00026461478, -0.058135193, 3.24298e-05, -0.37775326, 0.00023561416, -0.512136
3.06800, 0.00026495921, -0.058492120, 3.27819e-05, -0.37592666, 0.00023561416, -0.512136
3.06900, 0.00026530868, -0.058304213, 3.30788e-05, -0.37013166, 0.00023561416, -0.512136
3.07000, 0.00026555396, -0.058589920, 3.33334e-05, -0.36914516, 0.00023561416, -0.512136
3.07100, 0.00026586884, -0.058515567, 3.36121e-05, -0.36472626, 0.00023561416, -0.512136
3.07200, 0.00026619852, -0.058578722, 3.39200e-05, -0.36119986, 0.00023561416, -0.512136
3.07300, 0.00026642731, -0.058785032, 3.41513e-05, -0.35994006, 0.00023561416, -0.512136
3.07400, 0.00026673205, -0.058745455, 3.44259e-05, -0.35607406, 0.00023561416, -0.512136
3.07500, 0.00026705172, -0.058907665, 3.47361e-05, -0.35351536, 0.00023561416, -0.512136
3.07600, 0.00026729314, -0.059291136, 3.49984e-05, -0.35344906, 0.00023561416, -0.512136
3.07700, 0.00026765947, -0.058943089, 3.52979e-05, -0.34688926, 0.00023561416, -0.512136
3.07800, 0.00026787936, -0.059515025, 3.55603e-05, -0.34841816, 0.00023561416, -0.512136
3.07900, 0.00026815104, -0.059691135, 3.58287e-05, -0.34664386, 0.00023561416, -0.512136
3.08000, 0.00026845444, -0.059668150, 3.61055e-05, -0.34318516, 0.00023561416, -0.512136
3.08100, 0.00026866081, -0.060009014, 3.63312e-05, -0.34329576, 0.00023561416, -0.512136
3.08200, 0.00026894908, -0.060307425, 3.66281e-05, -0.34225966, 0.00023561416, -0.512136
3.08300, 0.00026921430, -0.060262907, 3.68680e-05, -0.33916426, 0.00023561416, -0.512136
3.08400, 0.00026941966, -0.060584683, 3.70909e-05, -0.33919136, 0.00023561416, -0.512136
3.08500, 0.00026967621, -0.060346968, 3.73034e-05, -0.33496086, 0.00023561416, -0.512136
3.08600, 0.00026995525, -0.060257956, 3.75525e-05, -0.33154076, 0.00023561416, -0.512136
3.08700, 0.00027015094, -0.060545292, 3.77631e-05, -0.33149216, 0.00023561416, -0.512136
3.08800, 0.00027045239, -0.060498975, 3.80377e-05, -0.32819406, 0.00023561416, -0.512136
3.08900, 0.00027066207, -0.060628965, 3.82453e-05, -0.32699276, 0.00023561416, -0.512136
3.09000, 0.00027084937, -0.060804795, 3.84368e-05, -0.32632016, 0.00023561416, -0.512136
3.09100, 0.00027111454, -0.060766529, 3.86792e-05, -0.32351946, 0.00023561416, -0.512136
3.09200, 0.00027126306, -0.060880274, 3.88286e-05, -0.32284206, 0.00023561416, -0.512136
3.09300, 0.00027152178, -0.061178338, 3.90989e-05, -0.32232206, 0.00023561416, -0.512136
3.09400, 0.00027174580, -0.061210502, 3.93104e-05, -0.32042596, 0.00023561416, -0.512136
3.09500, 0.00027186442, -0.061320506, 3.94317e-05, -0.32002686, 0.00023561416, -0.512136
3.09600, 0.00027212024, -0.061696734, 3.97073e-05, -0.32007186, 0.00023561416, -0.512136
3.09700, 0.00027234466, -0.061571904, 3.99038e-05, -0.31721656, 0.00023561416, -0.512136
3.09800, 0.00027248398, -0.062013004, 4.00773e-05, -0.31874816, 0.00023561416, -0.512136
3.09900, 0.00027271688, -0.061934087, 4.02865e-05, -0.31614516, 0.00023561416, -0.512136
3.10000, 0.00027286406, -0.062083174, 4.04385e-05, -0.31577056, 0.00023561416, -0.512136
3.10100, 0.00027302040, -0.061952382, 4.05715e-05, -0.31355926, 0.00023561416, -0.512136
3.10200, 0.00027326209, -0.061820351, 4.07841e-05, -0.31059476, 0.00023561416, -0.512136
3.10300, 0.00027337697, -0.061731525, 4.08828e-05, -0.30903766, 0.00023561416, -0.512136
3.10400, 0.00027358771, -0.062097583, 4.11154e-05, -0.30949426, 0.00023561416, -0.512136
3.10500, 0.00027379786, -0.061758574, 4.12791e-05, -0.30558176, 0.00023561416, -0.512136
3.10600, 0.00027389296, -0.062017813, 4.13931e-05, -0.30637666, 0.00023561416, -0.512136
3.10700, 0.00027404286, -0.062230945, 4.15541e-05, -0.30642816, 0.00023561416, -0.512136
3.10800, 0.00027422987, -0.062119670, 4.17184e-05, -0.30416036, 0.00023561416, -0.512136
3.10900, 0.00027428194, -0.062328625, 4.17873e-05, -0.30501006, 0.00023561416, -0.512136
3.11000, 0.00027446145, -0.062276933, 4.19504e-05, -0.30318666, 0.00023561416, -0.512136
3.11100, 0.00027460040, -0.062350631, 4.20877e-05, -0.30248546, 0.00023561416, -0.512136
3.11200, 0.00027465973, -0.062781520, 4.21846e-05, -0.30462026, 0.00023561416, -0.512136
3.11300, 0.00027483978, -0.062446218, 4.23212e-05, -0.30109116, 0.00023561416, -0.512136
3.11400, 0.00027493307, -0.062581696, 4.24217e-05, -0.30115556, 0.00023561416, -0.512136
3.11500, 0.00027499524, -0.062720686, 4.24933e-05, -0.30149246, 0.00023561416, -0.512136
3.11600, 0.00027515203, -0.062627427, 4.26314e-05, -0.29964516, 0.00023561416, -0.512136
3.11700, 0.00027518822, -0.062510177, 4.26542e-05, -0.29864096, 0.00023561416, -0.512136
3.11800, 0.00027528285, -0.062563583, 4.27481e-05, -0.29820056, 0.00023561416, -0.512136
3.11900, 0.00027541501, -0.062274057, 4.28448e-05, -0.29538746, 0.00023561416, -0.512136
3.12000, 0.00027544323, -0.062343936, 4.28780e-05, -0.29559016, 0.00023561416, -0.512136
3.12100, 0.00027558758, -0.062179171, 4.29981e-05, -0.29344386, 0.00023561416, -0.512136
3.12200, 0.00027568547, -0.061966822, 4.30703e-05, -0.29139276, 0.00023561416, -0.512136
3.12300, 0.00027570576, -0.062126391, 4.31042e-05, -0.29218696, 0.00023561416, -0.512136
3.12400, 0.00027584220, -0.061781745, 4.32006e-05, -0.28905266, 0.00023561416, -0.512136
3.12500, 0.00027591953, -0.061671596, 4.32632e-05, -0.28778906, 0.00023561416, -0.512136
3.12600, 0.00027593127, -0.061936978, 4.32988e-05, -0.28928606, 0.00023561416, -0.512136
3.12700, 0.00027604695, -0.061598051, 4.33765e-05, -0.28636476, 0.00023561416, -0.512136
3.12800, 0.00027604639, -0.061571904, 4.33734e-05, -0.28620196, 0.00023561416, -0.512136
3.12900, 0.00027614661, -0.061334122, 4.34461e-05, -0.28401226, 0.00023561416, -0.512136
3.13000, 0.00027627417, -0.061268937, 4.35605e-05, -0.28265186, 0.00023561416, -0.512136
3.13100, 0.00027627730, -0.061136406, 4.35514e-05, -0.28183886, 0.00023561416, -0.512136
3.13200, 0.00027637171, -0.061163716, 4.36430e-05, -0.28128646, 0.00023561416, -0.512136
3.13300, 0.00027644611, -0.060701717, 4.36712e-05, -0.27795766, 0.00023561416, -0.512136
3.13400, 0.00027645966, -0.060807738, 4.36937e-05, -0.27849646, 0.00023561416, -0.512136
3.13500, 0.00027657841, -0.060260925, 4.37566e-05, -0.27433706, 0.00023561416, -0.512136
3.13600, 0.00027664635, -0.060021933, 4.37995e-05, -0.27240626, 0.00023561416, -0.512136
3.13700, 0.00027667127, -0.060021933, 4.38231e-05, -0.27222316, 0.00023561416, -0.512136
3.13800, 0.00027680119, -0.059540071, 4.39033e-05, -0.26838986, 0.00023561416, -0.512136
3.13900, 0.00027682866, -0.059408706, 4.39177e-05, -0.26740286, 0.00023561416, -0.512136
3.14000, 0.00027689216, -0.059231758, 4.39625e-05, -0.26589796, 0.00023561416, -0.512136
3.14100, 0.00027698793, -0.058894500, 4.40238e-05, -0.26319336, 0.00023561416, -0.512136
3.14200, 0.00027700936, -0.058785032, 4.40345e-05, -0.26237966, 0.00023561416, -0.512136
3.14300, 0.00027704326, -0.058698736, 4.40592e-05, -0.26162426, 0.00023561416, -0.512136
3.14400, 0.00027714457, -0.058376793, 4.41275e-05, -0.25898116, 0.00023561416, -0.512136
3.14500, 0.00027714981, -0.058252022, 4.41218e-05, -0.25820566, 0.00023561416, -0.512136
3.14600, 0.00027722844, -0.058000650, 4.41749e-05, -0.25614906, 0.00023561416, -0.512136
3.14700, 0.00027733378, -0.057681020, 4.42479e-05, -0.25351356, 0.00023561416, -0.512136
3.14800, 0.00027730865, -0.057657234, 4.42219e-05, -0.25354196, 0.00023561416, -0.512136
3.14900, 0.00027745010, -0.057131458, 4.43120e-05, -0.24942446, 0.00023561416, -0.512136
3.15000, 0.00027750643, -0.056833182, 4.43407e-05, -0.24726526, 0.00023561416, -0.512136
3.15100, 0.00027752579, -0.056657672, 4.43444e-05, -0.24608056, 0.00023561416, -0.512136
3.15200, 0.00027766278, -0.056031086, 4.44232e-05, -0.24142336, 0.00023561416, -0.512136
3.15300, 0.00027767305, -0.055628385, 4.43999e-05, -0.23894946, 0.00023561416, -0.512136
3.15400, 0.00027776199, -0.055348959, 4.44621e-05, -0.23669266, 0.00023561416, -0.512136
3.15500, 0.00027785170, -0.054894570, 4.45111e-05, -0.23339196, 0.00023561416, -0.512136
3.15600, 0.00027788439, -0.054693226, 4.45261e-05, -0.23197126, 0.00023561416, -0.512136
3.15700, 0.00027798114, -0.054539271, 4.46064e-05, -0.23042696, 0.00023561416, -0.512136
3.15800, 0.00027804053, -0.054059338, 4.46250e-05, -0.22717546, 0.00023561416, -0.512136
3.15900, 0.00027803313, -0.054010779, 4.46141e-05, -0.22693656, 0.00023561416, -0.512136
3.16000, 0.00027813959, -0.053661861, 4.46887e-05, -0.22418136, 0.00023561416, -0.512136
3.16100, 0.00027821906, -0.053419054, 4.47459e-05, -0.22223086, 0.00023561416, -0.512136
3.16200, 0.00027824468, -0.053444721, 4.47724e-05, -0.22221586, 0.00023561416, -0.512136
3.16300, 0.00027836433, -0.052854560, 4.48415e-05, -0.21795746, 0.00023561416, -0.512136
3.16400, 0.00027843943, -0.052784566, 4.49082e-05, -0.21707226, 0.00023561416, -0.512136
3.16500, 0.00027849568, -0.052543383, 4.49437e-05, -0.21528816, 0.00023561416, -0.512136
3.16600, 0.00027861919, -0.052102324, 4.50289e-05, -0.21191426, 0.00023561416, -0.512136
3.16700, 0.00027862895, -0.051856820, 4.50197e-05, -0.21039366, 0.00023561416, -0.512136
3.16800, 0.00027871489, -0.051516477, 4.50768e-05, -0.20784996, 0.00023561416, -0.512136
3.16900, 0.00027879939, -0.050997615, 4.51195e-05, -0.20425816, 0.00023561416, -0.512136
3.17000, 0.00027873973, -0.050692689, 4.50394e-05, -0.20279216, 0.00023561416, -0.512136
3.17100, 0.00027884824, -0.050439149, 4.51253e-05, -0.20063706, 0.00023561416, -0.512136
3.17200, 0.00027889898, -0.049966417, 4.51398e-05, -0.19752926, 0.00023561416, -0.512136
3.17300, 0.00027886782, -0.050058223, 4.51164e-05, -0.19825666, 0.00023561416, -0.512136
3.17400, 0.00027889176, -0.049575847, 4.51045e-05, -0.19523716, 0.00023561416, -0.512136
3.17500, 0.00027892275, -0.049465064, 4.51265e-05, -0.19440196, 0.00023561416, -0.512136
3.17600, 0.00027886105, -0.049468681, 4.50672e-05, -0.19478106, 0.00023561416, -0.512136
3.17700, 0.00027889544, -0.049036473, 4.50694e-05, -0.19199916, 0.00023561416, -0.512136
3.17800, 0.00027883554, -0.048942748, 4.50048e-05, -0.19177936, 0.00023561416, -0.512136
3.17900, 0.00027881711, -0.049001195, 4.49911e-05, -0.19222896, 0.00023561416, -0.512136
3.18000, 0.00027885143, -0.048746206, 4.50062e-05, -0.19051576, 0.00023561416, -0.512136
3.18100, 0.00027880117, -0.048486184, 4.49390e-05, -0.18922926, 0.00023561416, -0.512136
3.18200, 0.00027883809, -0.048427120, 4.49706e-05, -0.18867256, 0.00023561416, -0.512136
3.18300, 0.00027885867, -0.048131939, 4.49697e-05, -0.18678616, 0.00023561416, -0.512136
3.18400, 0.00027880778, -0.047989264, 4.49104e-05, -0.18621226, 0.00023561416, -0.512136
3.18500, 0.00027881075, -0.047568694, 4.48838e-05, -0.18365926, 0.00023561416, -0.512136
3.18600, 0.00027880777, -0.047112744, 4.48493e-05, -0.18093006, 0.00023561416, -0.512136
3.18700, 0.00027878743, -0.047178511, 4.48343e-05, -0.18145246, 0.00023561416, -0.512136
3.18800, 0.00027885434, -0.046488460, 4.48518e-05, -0.17692446, 0.00023561416, -0.512136
3.18900, 0.00027885143, -0.046152487, 4.48261e-05, -0.17490666, 0.00023561416, -0.512136
3.19000, 0.00027885770, -0.046085257, 4.48277e-05, -0.17447186, 0.00023561416, -0.512136
3.19100, 0.00027889837, -0.045541234, 4.48307e-05, -0.17097306, 0.00023561416, -0.512136
3.19200, 0.00027892226, -0.045304954, 4.48381e-05, -0.16941136, 0.00023561416, -0.512136
3.19300, 0.00027897038, -0.045129579, 4.48732e-05, -0.16809456, 0.00023561416, -0.512136
3.19400, 0.00027909042, -0.044884492, 4.49738e-05, -0.16599296, 0.00023561416, -0.512136
3.19500, 0.00027911799, -0.044679448, 4.49871e-05, -0.16460466, 0.00023561416, -0.512136
3.19600, 0.00027931075, -0.044672776, 4.51741e-05, -0.16356706, 0.00023561416, -0.512136
3.19700, 0.00027936993, -0.044340536, 4.52102e-05, -0.16127106, 0.00023561416, -0.512136
3.19800, 0.00027933075, -0.044576574, 4.51873e-05, -0.16288496, 0.00023561416, -0.512136
3.19900, 0.00027943102, -0.043971907, 4.52459e-05, -0.15873786, 0.00023561416, -0.512136
3.20000, 0.00027944394, -0.043728519, 4.52431e-05, -0.15722276, 0.00023561416, -0.512136
3.20100, 0.00027944493, -0.043523513, 4.52309e-05, -0.15597006, 0.00023561416, -0.512136
3.20200, 0.00027963125, -0.043110583, 4.53865e-05, -0.15256806, 0.00023561416, -0.512136
3.20300, 0.00027968493, -0.042894285, 4.54253e-05, -0.15100266, 0.00023561416, -0.512136
3.20400, 0.00027987343, -0.042821947, 4.56046e-05, -0.14964886, 0.00023561416, -0.512136
3.20500, 0.00028020751, -0.042182263, 4.58914e-05, -0.14423106, 0.00023561416, -0.512136
3.20600, 0.00028019447, -0.042464010, 4.58959e-05, -0.14597986, 0.00023561416, -0.512136
3.20700, 0.00028028874, -0.042441539, 4.59865e-05, -0.14539596, 0.00023561416, -0.512136
3.20800, 0.00028024885, -0.042618178, 4.59583e-05, -0.14663006, 0.00023561416, -0.512136
3.20900, 0.00028017099, -0.042163882, 4.58547e-05, -0.14430066, 0.00023561416, -0.512136
3.21000, 0.00028032148, -0.042193569, 4.60034e-05, -0.14376616, 0.00023561416, -0.512136
3.21100, 0.00028054943, -0.041450828, 4.61816e-05, -0.13829876, 0.00023561416, -0.512136
3.21200, 0.00028076632, -0.041406214, 4.63909e-05, -0.13703846, 0.00023561416, -0.512136
3.21300, 0.00028137250, -0.040360596, 4.69234e-05, -0.12819646, 0.00023561416, -0.512136
3.21400, 0.00028205893, -0.039811779, 4.75650e-05, -0.12207796, 0.00023561416, -0.512136
3.21500, 0.00028272724, -0.039585002, 4.82080e-05, -0.11804796, 0.00023561416, -0.512136
3.21600, 0.00028377349, -0.039130554, 4.92106e-05, -0.11136266, 0.00023561416, -0.512136
3.21700, 0.00028488152, -0.039078716, 5.02968e-05, -0.10695386, 0.00023561416, -0.512136
3.21800, 0.00028602236, -0.039023757, 5.14159e-05, -0.10258286, 0.00023561416, -0.512136
3.21900, 0.00028716110, -0.038752396, 5.25231e-05, -0.097248061, 0.00023561416, -0.512136
3.22000, 0.00028802198, -0.038602874, 5.33638e-05, -0.093656261, 0.00023561416, -0.512136
3.22100, 0.00028903766, -0.038458973, 5.43579e-05, -0.089711661, 0.00023561416, -0.512136
3.22200, 0.00028990457, -0.038196091, 5.52005e-05, -0.085742961, 0.00023561416, -0.512136
