time(s), Phieff(Wb), Thetaeff(rad), Phipl(Wb), DelTheta(rad), Phiext(Wb), Thetaext(rad)
3.00000, 0.00050562216, 0.0024657000, 2.38936e-05, 3.1935093, 0.000529482, 0.00000
3.00100, 0.00050585194, 0.0024168694, 2.36638e-05, 3.1937725, 0.000529482, 0.00000
3.00200, 0.00050602398, 0.0025371844, 2.34948e-05, 3.1962716, 0.000529482, 0.00000
3.00300, 0.00050613104, 0.0024168694, 2.33846e-05, 3.1940118, 0.000529482, 0.00000
3.00400, 0.00050633814, 0.0025371844, 2.31809e-05, 3.1968629, 0.000529482, 0.00000
3.00500, 0.00050647336, 0.0024897563, 2.30448e-05, 3.1963565, 0.000529482, 0.00000
3.00600, 0.00050662638, 0.0024168694, 2.28899e-05, 3.1951009, 0.000529482, 0.00000
3.00700, 0.00050680893, 0.0024657000, 2.27095e-05, 3.1969887, 0.000529482, 0.00000
3.00800, 0.00050692474, 0.0023920804, 2.25910e-05, 3.1950533, 0.000529482, 0.00000
3.00900, 0.00050708732, 0.0023920804, 2.24287e-05, 3.1954781, 0.000529482, 0.00000
3.01000, 0.00050728464, 0.0023920804, 2.22322e-05, 3.1963536, 0.000529482, 0.00000
3.01100, 0.00050735058, 0.0022640675, 2.21630e-05, 3.1938111, 0.000529482, 0.00000
3.01200, 0.00050754909, 0.0022902426, 2.19657e-05, 3.1950685, 0.000529482, 0.00000
3.01300, 0.00050769468, 0.0022902426, 2.18197e-05, 3.1949150, 0.000529482, 0.00000
3.01400, 0.00050784657, 0.0022107877, 2.16665e-05, 3.1940128, 0.000529482, 0.00000
3.01500, 0.00050799288, 0.0022107877, 2.15202e-05, 3.1941945, 0.000529482, 0.00000
3.01600, 0.00050814738, 0.0022640675, 2.13666e-05, 3.1951591, 0.000529482, 0.00000
3.01700, 0.00050826555, 0.0021283689, 2.12455e-05, 3.1928040, 0.000529482, 0.00000
3.01800, 0.00050844702, 0.0022902426, 2.10685e-05, 3.1968338, 0.000529482, 0.00000
3.01900, 0.00050858933, 0.0022107877, 2.09247e-05, 3.1958000, 0.000529482, 0.00000
3.02000, 0.00050868486, 0.0022107877, 2.08293e-05, 3.1960341, 0.000529482, 0.00000
3.02100, 0.00050892647, 0.0022902426, 2.05902e-05, 3.1984517, 0.000529482, 0.00000
3.02200, 0.00050896335, 0.0021561920, 2.05496e-05, 3.1953708, 0.000529482, 0.00000
3.02300, 0.00050916200, 0.0021561920, 2.03518e-05, 3.1963832, 0.000529482, 0.00000
3.02400, 0.00050928849, 0.0021561920, 2.02249e-05, 3.1962101, 0.000529482, 0.00000
3.02500, 0.00050937746, 0.0020716023, 2.01337e-05, 3.1943371, 0.000529482, 0.00000
3.02600, 0.00050961356, 0.0020716023, 1.98979e-05, 3.1949603, 0.000529482, 0.00000
3.02700, 0.00050967645, 0.0020132356, 1.98342e-05, 3.1943061, 0.000529482, 0.00000
3.02800, 0.00050985176, 0.0019223655, 1.96560e-05, 3.1917931, 0.000529482, 0.00000
3.02900, 0.00051000605, 0.0020132356, 1.95043e-05, 3.1944710, 0.000529482, 0.00000
3.03000, 0.00051016530, 0.0020132356, 1.93450e-05, 3.1946575, 0.000529482, 0.00000
3.03100, 0.00051027117, 0.0018269814, 1.92349e-05, 3.1906587, 0.000529482, 0.00000
3.03200, 0.00051042789, 0.0019834081, 1.90824e-05, 3.1950261, 0.000529482, 0.00000
3.03300, 0.00051055169, 0.0018593199, 1.89562e-05, 3.1928837, 0.000529482, 0.00000
3.03400, 0.00051073936, 0.0019834081, 1.87713e-05, 3.1958214, 0.000529482, 0.00000
3.03500, 0.00051089203, 0.0019223655, 1.86169e-05, 3.1943833, 0.000529482, 0.00000
3.03600, 0.00051098487, 0.0019223655, 1.85240e-05, 3.1944739, 0.000529482, 0.00000
3.03700, 0.00051119948, 0.0019223655, 1.83106e-05, 3.1959688, 0.000529482, 0.00000
3.03800, 0.00051135106, 0.0019834081, 1.81601e-05, 3.1972634, 0.000529482, 0.00000
3.03900, 0.00051143313, 0.0018593199, 1.80756e-05, 3.1949965, 0.000529482, 0.00000
3.04000, 0.00051162767, 0.0019223655, 1.78822e-05, 3.1964442, 0.000529482, 0.00000
3.04100, 0.00051177988, 0.0019223655, 1.77302e-05, 3.1968834, 0.000529482, 0.00000
3.04200, 0.00051189847, 0.0017605233, 1.76083e-05, 3.1937062, 0.000529482, 0.00000
3.04300, 0.00051202850, 0.0018269814, 1.74798e-05, 3.1955101, 0.000529482, 0.00000
3.04400, 0.00051215429, 0.0018593199, 1.73555e-05, 3.1972148, 0.000529482, 0.00000
3.04500, 0.00051234916, 0.0017605233, 1.71576e-05, 3.1943900, 0.000529482, 0.00000
3.04600, 0.00051250671, 0.0018269814, 1.70023e-05, 3.1970193, 0.000529482, 0.00000
3.04700, 0.00051257473, 0.0016558425, 1.69302e-05, 3.1927602, 0.000529482, 0.00000
3.04800, 0.00051273981, 0.0018269814, 1.67692e-05, 3.1974088, 0.000529482, 0.00000
3.04900, 0.00051294236, 0.0017263351, 1.65640e-05, 3.1949445, 0.000529482, 0.00000
3.05000, 0.00051298166, 0.0017263351, 1.65250e-05, 3.1953336, 0.000529482, 0.00000
3.05100, 0.00051322500, 0.0017605233, 1.62836e-05, 3.1978442, 0.000529482, 0.00000
3.05200, 0.00051330029, 0.0018593199, 1.62113e-05, 3.2010395, 0.000529482, 0.00000
3.05300, 0.00051348295, 0.0017605233, 1.60255e-05, 3.1981322, 0.000529482, 0.00000
3.05400, 0.00051361072, 0.0017605233, 1.58992e-05, 3.1999332, 0.000529482, 0.00000
3.05500, 0.00051373905, 0.0018269814, 1.57716e-05, 3.2009322, 0.000529482, 0.00000
3.05600, 0.00051389132, 0.0017263351, 1.56165e-05, 3.1981923, 0.000529482, 0.00000
3.05700, 0.00051406664, 0.0017605233, 1.54431e-05, 3.2006194, 0.000529482, 0.00000
3.05800, 0.00051415941, 0.0017263351, 1.53490e-05, 3.1993672, 0.000529482, 0.00000
3.05900, 0.00051430291, 0.0017263351, 1.52051e-05, 3.1992203, 0.000529482, 0.00000
3.06000, 0.00051450719, 0.0017263351, 1.50016e-05, 3.2004739, 0.000529482, 0.00000
3.06100, 0.00051456098, 0.0015822123, 1.49444e-05, 3.1966907, 0.000529482, 0.00000
3.06200, 0.00051478565, 0.0016558425, 1.47217e-05, 3.1994349, 0.000529482, 0.00000
3.06300, 0.00051487055, 0.0016558425, 1.46375e-05, 3.2003972, 0.000529482, 0.00000
3.06400, 0.00051500122, 0.0015440810, 1.45038e-05, 3.1971242, 0.000529482, 0.00000
3.06500, 0.00051517716, 0.0015822123, 1.43286e-05, 3.1983506, 0.000529482, 0.00000
3.06600, 0.00051530698, 0.0015440810, 1.41978e-05, 3.1974532, 0.000529482, 0.00000
3.06700, 0.00051538010, 0.0015440810, 1.41249e-05, 3.1978413, 0.000529482, 0.00000
3.06800, 0.00051558083, 0.0015440810, 1.39246e-05, 3.1988022, 0.000529482, 0.00000
3.06900, 0.00051569940, 0.0015822123, 1.38073e-05, 3.2005703, 0.000529482, 0.00000
3.07000, 0.00051582821, 0.0015440810, 1.36770e-05, 3.1990420, 0.000529482, 0.00000
3.07100, 0.00051598832, 0.0015822123, 1.35190e-05, 3.2019860, 0.000529482, 0.00000
3.07200, 0.00051606122, 0.0014648439, 1.34439e-05, 3.1994535, 0.000529482, 0.00000
3.07300, 0.00051625698, 0.0015822123, 1.32507e-05, 3.2030188, 0.000529482, 0.00000
3.07400, 0.00051636584, 0.0015440810, 1.31411e-05, 3.2023927, 0.000529482, 0.00000
3.07500, 0.00051646502, 0.0014648439, 1.30400e-05, 3.2002222, 0.000529482, 0.00000
3.07600, 0.00051663619, 0.0014648439, 1.28689e-05, 3.2007143, 0.000529482, 0.00000
3.07700, 0.00051679193, 0.0013810680, 1.27118e-05, 3.1993257, 0.000529482, 0.00000
3.07800, 0.00051689103, 0.0013810680, 1.26117e-05, 3.1982037, 0.000529482, 0.00000
3.07900, 0.00051703010, 0.0013810680, 1.24731e-05, 3.1991579, 0.000529482, 0.00000
3.08000, 0.00051715284, 0.0013372133, 1.23501e-05, 3.1991221, 0.000529482, 0.00000
3.08100, 0.00051729942, 0.0013372133, 1.22020e-05, 3.1972872, 0.000529482, 0.00000
3.08200, 0.00051744154, 0.0013372133, 1.20606e-05, 3.1986658, 0.000529482, 0.00000
3.08300, 0.00051754289, 0.0013372133, 1.19592e-05, 3.1988575, 0.000529482, 0.00000
3.08400, 0.00051767147, 0.0012448779, 1.18298e-05, 3.1979715, 0.000529482, 0.00000
3.08500, 0.00051785266, 0.0013372133, 1.16505e-05, 3.2011449, 0.000529482, 0.00000
3.08600, 0.00051791300, 0.0012448779, 1.15870e-05, 3.1966612, 0.000529482, 0.00000
3.08700, 0.00051809055, 0.0012448779, 1.14118e-05, 3.2006189, 0.000529482, 0.00000
3.08800, 0.00051822240, 0.0013372133, 1.12804e-05, 3.2016203, 0.000529482, 0.00000
3.08900, 0.00051829673, 0.0011451211, 1.12034e-05, 3.1978404, 0.000529482, 0.00000
3.09000, 0.00051845867, 0.0012448779, 1.10441e-05, 3.2022163, 0.000529482, 0.00000
3.09100, 0.00051854512, 0.0012448779, 1.09562e-05, 3.2003266, 0.000529482, 0.00000
3.09200, 0.00051867555, 0.0010918301, 1.08214e-05, 3.1935641, 0.000529482, 0.00000
3.09300, 0.00051885044, 0.0011451211, 1.06488e-05, 3.1978599, 0.000529482, 0.00000
3.09400, 0.00051891168, 0.0010918301, 1.05855e-05, 3.1945163, 0.000529482, 0.00000
3.09500, 0.00051903535, 0.00097656250, 1.04609e-05, 3.1932136, 0.000529482, 0.00000
3.09600, 0.00051919017, 0.0010918301, 1.03077e-05, 3.1965009, 0.000529482, 0.00000
3.09700, 0.00051927281, 0.00097656250, 1.02218e-05, 3.1907303, 0.000529482, 0.00000
3.09800, 0.00051940124, 0.00097656250, 1.00950e-05, 3.1941158, 0.000529482, 0.00000
3.09900, 0.00051956315, 0.00097656250, 9.93284e-06, 3.1941106, 0.000529482, 0.00000
3.10000, 0.00051958764, 0.00091349060, 9.90660e-06, 3.1907641, 0.000529482, 0.00000
3.10100, 0.00051980657, 0.00097656250, 9.69032e-06, 3.1964461, 0.000529482, 0.00000
3.10200, 0.00051986275, 0.00097656250, 9.63299e-06, 3.1944491, 0.000529482, 0.00000
3.10300, 0.00051999514, 0.00091349060, 9.49960e-06, 3.1928393, 0.000529482, 0.00000
3.10400, 0.00052012241, 0.00097656250, 9.37487e-06, 3.1981279, 0.000529482, 0.00000
3.10500, 0.00052025355, 0.00097656250, 9.24401e-06, 3.1990258, 0.000529482, 0.00000
3.10600, 0.00052029598, 0.00091349060, 9.19893e-06, 3.1940619, 0.000529482, 0.00000
3.10700, 0.00052045564, 0.00097656250, 9.04189e-06, 3.1996104, 0.000529482, 0.00000
3.10800, 0.00052053712, 0.00091349060, 8.95854e-06, 3.1962549, 0.000529482, 0.00000
3.10900, 0.00052064727, 0.00091349060, 8.84823e-06, 3.1962811, 0.000529482, 0.00000
3.11000, 0.00052079003, 0.00091349060, 8.70432e-06, 3.1943323, 0.000529482, 0.00000
3.11100, 0.00052079427, 0.00077204045, 8.69855e-06, 3.1909906, 0.000529482, 0.00000
3.11200, 0.00052099916, 0.00077204045, 8.49389e-06, 3.1921317, 0.000529482, 0.00000
3.11300, 0.00052107621, 0.00091349060, 8.41893e-06, 3.1969277, 0.000529482, 0.00000
3.11400, 0.00052114730, 0.00059801998, 8.34302e-06, 3.1857979, 0.000529482, 0.00000
3.11500, 0.00052129318, 0.00077204045, 8.19999e-06, 3.1932785, 0.000529482, 0.00000
3.11600, 0.00052140878, 0.00077204045, 8.08288e-06, 3.1900002, 0.000529482, 0.00000
3.11700, 0.00052151130, 0.00077204045, 7.97995e-06, 3.1892378, 0.000529482, 0.00000
3.11800, 0.00052162384, 0.00077204045, 7.86857e-06, 3.1925813, 0.000529482, 0.00000
3.11900, 0.00052170303, 0.00077204045, 7.79047e-06, 3.1954762, 0.000529482, 0.00000
3.12000, 0.00052182877, 0.00059801998, 7.66231e-06, 3.1897990, 0.000529482, 0.00000
3.12100, 0.00052197494, 0.00091349060, 7.52057e-06, 3.2010209, 0.000529482, 0.00000
3.12200, 0.00052202484, 0.00059801998, 7.46507e-06, 3.1871568, 0.000529482, 0.00000
3.12300, 0.00052215493, 0.00077204045, 7.33760e-06, 3.1947128, 0.000529482, 0.00000
3.12400, 0.00052229169, 0.00077204045, 7.20115e-06, 3.1959726, 0.000529482, 0.00000
3.12500, 0.00052234161, 0.00059801998, 7.14897e-06, 3.1901533, 0.000529482, 0.00000
3.12600, 0.00052245607, 0.00059801998, 7.03548e-06, 3.1932275, 0.000529482, 0.00000
3.12700, 0.00052255957, 0.00059801998, 6.93296e-06, 3.1962706, 0.000529482, 0.00000
3.12800, 0.00052262471, 0.00059801998, 6.86413e-06, 3.1857998, 0.000529482, 0.00000
3.12900, 0.00052281231, 0.00077204045, 6.68112e-06, 3.1996037, 0.000529482, 0.00000
3.13000, 0.00052283446, 0.00059801998, 6.65624e-06, 3.1922671, 0.000529482, 0.00000
3.13100, 0.00052292660, 0.00059801998, 6.56383e-06, 3.1918227, 0.000529482, 0.00000
3.13200, 0.00052306446, 0.00059801998, 6.42774e-06, 3.1974637, 0.000529482, 0.00000
3.13300, 0.00052315242, 0.00059801998, 6.33983e-06, 3.1980373, 0.000529482, 0.00000
3.13400, 0.00052326276, 0.00059801998, 6.22775e-06, 3.1934077, 0.000529482, 0.00000
3.13500, 0.00052336603, 0.00059801998, 6.12652e-06, 3.1998135, 0.000529482, 0.00000
3.13600, 0.00052342924, 0.00059801998, 6.06138e-06, 3.1944629, 0.000529482, 0.00000
3.13700, 0.00052358155, 0.00077204045, 5.91298e-06, 3.2062499, 0.000529482, 0.00000
3.13800, 0.00052365879, 0.00059801998, 5.83472e-06, 3.2039396, 0.000529482, 0.00000
3.13900, 0.00052369330, 0.00059801998, 5.79736e-06, 3.1957924, 0.000529482, 0.00000
3.14000, 0.00052391384, 0.00059801998, 5.57816e-06, 3.2010214, 0.000529482, 0.00000
3.14100, 0.00052397718, 0.00059801998, 5.51609e-06, 3.2050425, 0.000529482, 0.00000
3.14200, 0.00052401909, 0.00048828125, 5.47028e-06, 3.1930896, 0.000529482, 0.00000
3.14300, 0.00052415041, 0.00059801998, 5.34175e-06, 3.2028562, 0.000529482, 0.00000
3.14400, 0.00052421589, 0.00048828125, 5.27457e-06, 3.1978175, 0.000529482, 0.00000
3.14500, 0.00052434539, 0.00048828125, 5.14422e-06, 3.1955911, 0.000529482, 0.00000
3.14600, 0.00052448437, 0.00048828125, 5.00571e-06, 3.1979710, 0.000529482, 0.00000
3.14700, 0.00052448948, 0.00048828125, 4.99805e-06, 3.1882369, 0.000529482, 0.00000
3.14800, 0.00052465569, 0.00048828125, 4.83340e-06, 3.1953508, 0.000529482, 0.00000
3.14900, 0.00052474908, 0.00048828125, 4.74138e-06, 3.2009451, 0.000529482, 0.00000
3.15000, 0.00052479237, 0.00048828125, 4.69490e-06, 3.1885420, 0.000529482, 0.00000
3.15100, 0.00052497141, 0.00048828125, 4.51876e-06, 3.2013652, 0.000529482, 0.00000
3.15200, 0.00052508395, 0.00048828125, 4.40551e-06, 3.1993729, 0.000529482, 0.00000
3.15300, 0.00052513868, 0.00048828125, 4.34997e-06, 3.1964814, 0.000529482, 0.00000
3.15400, 0.00052525717, 0.00048828125, 4.23330e-06, 3.2044303, 0.000529482, 0.00000
3.15500, 0.00052534576, 0.00048828125, 4.14522e-06, 3.2069890, 0.000529482, 0.00000
3.15600, 0.00052546126, 0.00048828125, 4.02807e-06, 3.2015382, 0.000529482, 0.00000
3.15700, 0.00052557864, 0.00048828125, 3.91339e-06, 3.2127988, 0.000529482, 0.00000
3.15800, 0.00052564641, 0.00048828125, 3.84360e-06, 3.2057449, 0.000529482, 0.00000
3.15900, 0.00052571938, 0.00048828125, 3.77007e-06, 3.2040693, 0.000529482, 0.00000
3.16000, 0.00052589612, 0.00048828125, 3.59382e-06, 3.2077238, 0.000529482, 0.00000
3.16100, 0.00052590265, 0.00048828125, 3.58602e-06, 3.2022416, 0.000529482, 0.00000
3.16200, 0.00052606883, 0.00048828125, 3.41897e-06, 3.1995236, 0.000529482, 0.00000
3.16300, 0.00052613471, 0.00048828125, 3.35391e-06, 3.2040087, 0.000529482, 0.00000
3.16400, 0.00052622884, 0.0000000, 3.25657e-06, 3.1869761, 0.000529482, 0.00000
3.16500, 0.00052631279, 0.00048828125, 3.17567e-06, 3.2049934, 0.000529482, 0.00000
3.16600, 0.00052643438, 0.0000000, 3.05317e-06, 3.2014872, 0.000529482, 0.00000
3.16700, 0.00052649055, 0.0000000, 2.99651e-06, 3.1992966, 0.000529482, 0.00000
3.16800, 0.00052665493, 0.0000000, 2.83242e-06, 3.2026941, 0.000529482, 0.00000
3.16900, 0.00052669923, 0.00048828125, 2.78978e-06, 3.2120988, 0.000529482, 0.00000
3.17000, 0.00052681933, 0.0000000, 2.66831e-06, 3.2061750, 0.000529482, 0.00000
3.17100, 0.00052693071, 0.00048828125, 2.56115e-06, 3.2289631, 0.000529482, 0.00000
3.17200, 0.00052700034, 0.0000000, 2.48713e-06, 3.2074591, 0.000529482, 0.00000
3.17300, 0.00052714793, 0.00048828125, 2.34501e-06, 3.2379147, 0.000529482, 0.00000
3.17400, 0.00052722222, 0.00048828125, 2.27069e-06, 3.2393009, 0.000529482, 0.00000
3.17500, 0.00052729506, 0.0000000, 2.19411e-06, 3.2221476, 0.000529482, 0.00000
3.17600, 0.00052743918, 0.0000000, 2.04843e-06, 3.2151291, 0.000529482, 0.00000
3.17700, 0.00052753647, 0.0000000, 1.95229e-06, 3.2244798, 0.000529482, 0.00000
3.17800, 0.00052758310, 0.0000000, 1.90137e-06, 3.1921474, 0.000529482, 0.00000
3.17900, 0.00052773156, 0.0000000, 1.75857e-06, 3.2373339, 0.000529482, 0.00000
3.18000, 0.00052780615, 0.0000000, 1.67935e-06, 3.2057215, 0.000529482, 0.00000
3.18100, 0.00052788465, 0.0000000, 1.60276e-06, 3.2234074, 0.000529482, 0.00000
3.18200, 0.00052804034, 0.0000000, 1.44847e-06, 3.2381188, 0.000529482, 0.00000
3.18300, 0.00052804244, 0.0000000, 1.44392e-06, 3.2189519, 0.000529482, 0.00000
3.18400, 0.00052818106, 0.0000000, 1.30561e-06, 3.2257492, 0.000529482, 0.00000
3.18500, 0.00052832556, 0.0000000, 1.16186e-06, 3.2378847, 0.000529482, 0.00000
3.18600, 0.00052830229, 0.0000000, 1.18405e-06, 3.2268755, 0.000529482, 0.00000
3.18700, 0.00052847798, 0.0000000, 1.00958e-06, 3.2460725, 0.000529482, 0.00000
3.18800, 0.00052854339, 0.0000000, 9.45086e-07, 3.2583424, 0.000529482, 0.00000
3.18900, 0.00052860833, 0.0000000, 8.78232e-07, 3.2430932, 0.000529482, 0.00000
3.19000, 0.00052871369, 0.0000000, 7.80525e-07, 3.3184191, 0.000529482, 0.00000
3.19100, 0.00052879352, 0.0000000, 6.92860e-07, 3.2534186, 0.000529482, 0.00000
3.19200, 0.00052885123, 0.0000000, 6.32157e-07, 3.2069227, 0.000529482, 0.00000
3.19300, 0.00052898864, 0.0000000, 4.96030e-07, 3.2444193, 0.000529482, 0.00000
3.19400, 0.00052904960, 0.0000000, 4.36049e-07, 3.2701856, 0.000529482, 0.00000
3.19500, 0.00052913040, 0.0000000, 3.51661e-07, 3.1544587, 0.000529482, 0.00000
3.19600, 0.00052923263, 0.0000000, 2.51121e-07, 3.2587415, 0.000529482, 0.00000
3.19700, 0.00052927482, 0.0000000, 2.08760e-07, 3.0206505, 0.000529482, 0.00000
3.19800, 0.00052935811, 0.0000000, 1.26864e-07, 3.3568074, 0.000529482, 0.00000
3.19900, 0.00052950286, 0.0000000, 3.20494e-08, 0.86355846, 0.000529482, 0.00000
3.20000, 0.00052948204, -0.0000000, 0.00000, -1.5707963, 0.000529482, 0.00000
3.20100, 0.00052964364, 0.0000000, 1.61969e-07, 0.067357459, 0.000529482, 0.00000
3.20200, 0.00052969798, 0.0000000, 2.15937e-07, 0.0097137590, 0.000529482, 0.00000
3.20300, 0.00052977388, 0.0000000, 3.01266e-07, 0.25074316, 0.000529482, 0.00000
3.20400, 0.00052988328, 0.0000000, 4.02943e-07, 0.092336059, 0.000529482, 0.00000
3.20500, 0.00052993711, -0.0000000, 4.55391e-07, -0.036955041, 0.000529482, 0.00000
3.20600, 0.00053002209, 0.0000000, 5.43030e-07, 0.10464856, 0.000529482, 0.00000
3.20700, 0.00053008900, 0.0000000, 6.07082e-07, 0.020302859, 0.000529482, 0.00000
3.20800, 0.00053015717, 0.0000000, 6.79368e-07, 0.11175076, 0.000529482, 0.00000
3.20900, 0.00053024335, 0.0000000, 7.64152e-07, 0.086554159, 0.000529482, 0.00000
3.21000, 0.00053034599, 0.0000000, 8.65843e-07, 0.066080359, 0.000529482, 0.00000
3.21100, 0.00053032302, 0.0000000, 8.50544e-07, 0.15014076, 0.000529482, 0.00000
3.21200, 0.00053048803, 0.0000000, 1.00921e-06, 0.080052459, 0.000529482, 0.00000
3.21300, 0.00053051500, 0.0000000, 1.03754e-06, 0.094161659, 0.000529482, 0.00000
3.21400, 0.00053059262, 0.0000000, 1.11843e-06, 0.11868076, 0.000529482, 0.00000
3.21500, 0.00053068684, 0.0000000, 1.20839e-06, 0.077128459, 0.000529482, 0.00000
3.21600, 0.00053075705, 0.0000000, 1.27963e-06, 0.085152459, 0.000529482, 0.00000
3.21700, 0.00053080262, 0.0000000, 1.32587e-06, 0.089506259, 0.000529482, 0.00000
3.21800, 0.00053091127, 0.0000000, 1.43175e-06, 0.059360859, 0.000529482, 0.00000
3.21900, 0.00053093136, 0.0000000, 1.45431e-06, 0.082921359, 0.000529482, 0.00000
3.22000, 0.00053100347, 0.0000000, 1.52702e-06, 0.085682359, 0.000529482, 0.00000
3.22100, 0.00053112229, 0.0000000, 1.64300e-06, 0.057993759, 0.000529482, 0.00000
3.22200, 0.00053108780, 0.0000000, 1.61243e-06, 0.091039759, 0.000529482, 0.00000
3.22300, 0.00053121822, 0.0000000, 1.73983e-06, 0.065044959, 0.000529482, 0.00000
3.22400, 0.00053127993, 0.0000000, 1.80027e-06, 0.051535859, 0.000529482, 0.00000
3.22500, 0.00053131206, 0.0000000, 1.83708e-06, 0.087888459, 0.000529482, 0.00000
3.22600, 0.00053141784, 0.0000000, 1.94096e-06, 0.073145859, 0.000529482, 0.00000
3.22700, 0.00053149179, 0.0000000, 2.01702e-06, 0.085083359, 0.000529482, 0.00000
3.22800, 0.00053153092, 0.0000000, 2.05768e-06, 0.092712059, 0.000529482, 0.00000
3.22900, 0.00053164508, 0.0000000, 2.16917e-06, 0.075417059, 0.000529482, 0.00000
3.23000, 0.00053168086, 0.0000000, 2.20606e-06, 0.081182959, 0.000529482, 0.00000
3.23100, 0.00053174560, 0.00048828125, 2.27314e-06, 0.092047659, 0.000529482, 0.00000
3.23200, 0.00053186705, 0.00048828125, 2.39361e-06, 0.085018259, 0.000529482, 0.00000
3.23300, 0.00053189442, 0.0000000, 2.42015e-06, 0.080304659, 0.000529482, 0.00000
3.23400, 0.00053198177, 0.00048828125, 2.50790e-06, 0.080911859, 0.000529482, 0.00000
3.23500, 0.00053209335, 0.0000000, 2.61622e-06, 0.061443459, 0.000529482, 0.00000
3.23600, 0.00053210128, 0.00048828125, 2.62930e-06, 0.087684559, 0.000529482, 0.00000
3.23700, 0.00053223928, 0.00048828125, 2.76471e-06, 0.073702959, 0.000529482, 0.00000
3.23800, 0.00053227228, 0.0000000, 2.79602e-06, 0.064441459, 0.000529482, 0.00000
3.23900, 0.00053232644, 0.00048828125, 2.85209e-06, 0.073594959, 0.000529482, 0.00000
